Compute Correlation 
 
0		602.73		504.014
1		291.262		728.556
2		-115.299		768.779
3		-504.675		588.865
4		-757.052		222.472
5		-787.647		-232.941
6		-578.354		-646.698
7		-185.282		-898.565
8		280.54		-918.16
9		690.775		-705.141
10		940.196		-324.129
11		974.899		120.896
12		800.175		520.473
13		469.427		788.478
14		62.6646		877.567
15		-335.158		780.61
16		-649.268		523.486
17		-822.951		156.067
18		-821.885		-254.858
19		-638.969		-631.751
20		-300.21		-895.558
21		132.301		-980.852
22		566.324		-855.04
23		897.9		-534.63
24		1039.66		-89.457
25		949.823		371.066
26		649.834		728.161
27		221.319		890.677
28		-218.566		824.663
29		-555.035		563.297
30		-712.118		192.804
31		-673.371		-179.7
32		-479.528		-462.875
33		-205.984		-607.486
34		68.502		-613.087
35		287.846		-515.306
36		429.427		-362.575
37		498.155		-194.755
38		510.571		-33.1452
39		479.6		115.986
40		408.392		249.843
41		295.169		358.719
42		143.987		424.107
43		-27.0163		426.584
44		-186.469		358.212
45		-300.341		231.131
46		-346.569		76.0714
47		-325.14		-69.4753
48		-257.251		-177.332
49		-173.401		-239.919
50		-96.8318		-270.037
51		-31.866		-288.908
52		35.6534		-309.188
53		125.352		-323.095
54		243.713		-303.582
55		370.812		-219.486
56		461.379		-57.5079
57		461.995		160.818
58		337.5		377.631
59		93.9203		516.02
60		-214.214		509.985
61		-497.594		334.127
62		-662.531		19.3409
63		-645.67		-353.344
64		-438.41		-678.924
65		-90.9609		-863.957
66		305.066		-857.085
67		647.511		-663.068
68		855.137		-336.632
69		888.131		38.9469
70		752.301		378.196
71		489.212		614.51
72		159.662		710.355
73		-171.605		657.31
74		-445.673		470.911
75		-614.366		185.543
76		-644.046		-148.599
77		-521.512		-468.552
78		-261.581		-705.771
79		88.0547		-799.921
80		450.638		-717.148
81		736.108		-466.039
82		866.38		-102.763
83		801.764		280.114
84		557.512		579.879
85		202.16		716.469
86		-163.557		659.165
87		-439.986		436.195
88		-561.147		122.996
89		-513.844		-186
90		-336.353		-410.351
91		-98.6254		-508.033
92		126.308		-482.499
93		287.165		-371.751
94		365.905		-226.677
95		373.509		-89.7101
96		335.149		16.9282
97		274.073		90.1791
98		202.564		135.996
99		123.17		157.937
100		37.1948		151.811
101		-46.5273		109.187
102		-109.127		26.7711
103		-127.795		-84.9774
104		-87.3295		-200.269
105		9.61044		-285.583
106		139.915		-313.16
107		267.423		-273.475
108		357.143		-179.949
109		389.323		-63.1683
110		366.294		42.6525
111		308.806		114.115
112		244.058		146.753
113		191.921		153.052
114		156.609		152.003
115		127.93		156.313
116		90.9451		164.439
117		38.3112		161.861
118		-21.8543		130.849
119		-67.2736		63.3102
120		-71.7209		-30.4581
121		-19.0895		-122.215
122		85.8691		-175.8
123		215.721		-162.244
124		328.658		-72.9558
125		383.312		74.9935
126		353.637		243.625
127		237.779		386.391
128		58.0965		462.649
129		-146.487		448.718
130		-331.724		342.387
131		-458.433		161.103
132		-499.363		-63.5519
133		-442.424		-292.187
134		-291.798		-483.27
135		-68.2525		-598.525
136		191.544		-609.263
137		438.44		-503.852
138		618.791		-294.459
139		686.988		-19.534
140		619.584		261.295
141		425.752		480.686
142		148.864		582.323
143		-143.23		538.636
144		-377.021		360.563
145		-494.974		95.011
146		-472.041		-189.487
147		-321.094		-423.568
148		-85.9341		-556.469
149		174.426		-567.319
150		403.36		-465.497
151		559.561		-282.162
152		622.004		-58.262
153		587.917		165.448
154		467.763		353.516
155		281.381		476.868
156		57.0599		513.169
157		-168.085		449.615
158		-350.002		288.647
159		-444.792		53.7236
160		-420.7		-209.553
161		-270.977		-440.559
162		-21.4183		-578.867
163		272.381		-582.916
164		538.934		-444.792
165		711.628		-194.583
166		748.592		108.128
167		643.983		392.486
168		426.781		597.045
169		148.664		684.97
170		-132.94		648.913
171		-369.323		505.88
172		-527.625		286.812
173		-590.418		27.0596
174		-551.562		-238.205
175		-413.461		-473.797
176		-188.623		-643.378
177		95.6764		-712.056
178		394.369		-654.837
179		648.418		-468.535
180		797.629		-181.005
181		799.407		148.902
182		646.017		443.817
183		372.009		630.025
184		46.8848		661.296
185		-245.542		534.583
186		-433.485		290.727
187		-478.828		-0.305908
188		-385.7		-263.4
189		-193.585		-441.499
190		40.6338		-509.078
191		262.929		-472.105
192		436.112		-357.187
193		543.277		-197.1
194		582.348		-20.2289
195		557.608		152.22
196		474.521		302.667
197		340.783		412.504
198		171.652		461.76
199		-5.82169		435.096
200		-154.873		331.276
201		-238.848		170.006
202		-235.144		-9.49798
203		-146.179		-159.718
204		-0.895081		-241.776
205		155.336		-240.227
206		278.417		-168.196
207		342.548		-59.8559
208		348.196		46.2493
209		317.105		124.663
210		277.204		172.292
211		245.683		204.812
212		219.585		242.449
213		179.289		293.248
214		103.194		343.592
215		-14.4441		362.031
216		-152.764		315.335
217		-267.595		188.84
218		-308.561		0.250626
219		-242.387		-201.165
220		-71.0919		-350.991
221		164.217		-394.83
222		396.497		-310.823
223		557.329		-119.189
224		601.96		125.429
225		523.971		354.953
226		353.946		512.44
227		144.178		569.49
228		-52.3409		530.055
229		-198.773		421.199
230		-280.552		277.454
231		-300.485		127.439
232		-268.226		-11.2024
233		-191.655		-128.117
234		-75.3786		-212.608
235		73.571		-248.859
236		237.715		-218.586
237		385.487		-110.677
238		476.422		67.4818
239		474.531		284.177
240		364.164		487.978
241		160.502		622.533
242		-91.2029		645.947
243		-328.427		546.425
244		-491.331		347.309
245		-541.758		99.3739
246		-473.808		-136.102
247		-312.604		-306.27
248		-103.197		-380.352
249		104.656		-353.912
250		269.456		-244.388
251		364.751		-81.993
252		379.693		99.0306
253		316.281		265.822
254		186.784		389.112
255		13.0252		444.689
256		-173.577		416.652
257		-334.08		302.86
258		-428.551		120.211
259		-426.82		-94.2098
260		-319.993		-289.183
261		-127.425		-412.533
262		105.203		-427.522
263		317.654		-326.168
264		453.273		-133.635
265		476.86		98.7306
266		385.39		309.476
267		207.581		446.131
268		-7.07614		480.103
269		-204.974		412.254
270		-344.016		268.222
271		-402.716		86.7555
272		-380.75		-93.2926
273		-292.823		-242.202
274		-160.199		-342.412
275		-4.18665		-386.331
276		156.189		-372.183
277		303.037		-301.351
278		417.676		-178.91
279		480.823		-16.5073
280		476.195		165.061
281		396.426		336.379
282		248.469		464.3
283		55.4048		520.142
284		-146.983		488.24
285		-318.237		371.502
286		-423.245		191.719
287		-440.86		-15.5071
288		-368.452		-209.336
289		-221.484		-352.874
290		-28.9815		-420.341
291		173.079		-400.833
292		348.427		-298.778
293		465.955		-132.084
294		503.756		70.871
295		452.107		274.87
296		315.709		442.233
297		114.805		538.354
298		-115.83		538.339
299		-331.143		433.762
300		-483.746		237.566
301		-534.564		-15.1972
302		-463.745		-272.373
303		-278.432		-475.451
304		-14.258		-573.927
305		271.065		-539.415
306		511.22		-375.069
307		648.503		-116.791
308		649.752		174.928
309		515.958		430.695
310		282.24		590.899
311		7.92802		621.688
312		-240.213		523.215
313		-406.272		327.734
314		-459.192		88.5418
315		-398.395		-136.157
316		-250.021		-298.916
317		-56.1306		-373.343
318		138.592		-356.591
319		297.893		-264.763
320		399.693		-124.414
321		436.165		35.8795
322		410.168		190.96
323		331.06		320.869
324		212.152		410.349
325		70.2325		448.356
326		-74.2276		429.187
327		-198.241		355.055
328		-280.021		238.311
329		-304.59		101.016
330		-268.893		-29.3101
331		-183.633		-126.879
332		-70.316		-174.934
333		45.6581		-169.872
334		142.846		-120.245
335		208.914		-41.2769
336		240.821		52.0697
337		240.533		149.632
338		209.353		245.776
339		144.906		334.811
340		43.3441		405.478
341		-93.9056		438.942
342		-252.703		413.171
343		-403.27		312.994
344		-505.363		141.398
345		-521.156		-74.128
346		-431.072		-284.943
347		-245.375		-434.784
348		-5.35996		-478.917
349		227.709		-401.082
350		392.232		-220.763
351		446.656		12.6955
352		382.31		236.823
353		223.768		396.53
354		17.4967		459.966
355		-185.379		423.955
356		-344.348		308.479
357		-436.956		144.756
358		-457.264		-36.2442
359		-408.977		-209.524
360		-299.162		-354.998
361		-137.073		-453.125
362		61.5667		-482.774
363		268.871		-425.285
364		443.618		-274.285
365		538.662		-46.2588
366		516.177		215.168
367		364.83		446.234
368		110.449		581.073
369		-186.4		574.569
370		-447.029		420.504
371		-599.877		156.607
372		-604.498		-146.518
373		-464.519		-408.6
374		-224.536		-565.764
375		47.1616		-589.188
376		282.291		-489.784
377		432.933		-308.736
378		481.387		-99.6495
379		437.818		89.3084
380		329.567		226.456
381		188.722		298.554
382		43.6386		306.171
383		-83.6121		257.448
384		-175.861		164.482
385		-219.451		43.3608
386		-205.753		-84.4425
387		-135.436		-192.907
388		-22.3822		-256.651
389		106.668		-259.311
390		218.689		-201.018
391		285.412		-100.336
392		293.933		11.6118
393		251.446		102.974
394		181.212		153.595
395		111.37		161.914
396		62.097		142.801
397		37.6663		117.534
398		27.4737		101.333
399		15.2681		95.2616
400		-8.70284		86.9837
401		-39.616		59.9714
402		-58.9212		6.0148
403		-44.085		-66.151
404		17.7947		-131.38
405		119.89		-158.237
406		234.857		-123.93
407		324.398		-26.5084
408		354.843		111.968
409		311.284		253.093
410		203.561		356.961
411		61.5707		397.105
412		-77.3098		368.721
413		-182.251		287.113
414		-237.913		178.325
415		-245.033		67.5951
416		-214.076		-28.4189
417		-156.832		-102.546
418		-81.2544		-152.406
419		7.88131		-174.551
420		103.925		-162.186
421		193.348		-108.553
422		255.311		-14.0932
423		267.596		107.326
424		216.624		227.877
425		106.43		312.773
426		-38.648		332.474
427		-179.861		274.685
428		-276.562		150.428
429		-300.025		-8.78063
430		-242.678		-161.37
431		-119.234		-269.07
432		39.8232		-307.582
433		198.608		-270.925
434		325.266		-169.347
435		397.294		-23.646
436		402.622		140.383
437		338.721		295.242
438		212.437		413.248
439		41.4134		468.69
440		-144.615		442.716
441		-305.885		330.738
442		-400.36		149.177
443		-396.38		-63.1084
444		-285.817		-252.034
445		-91.477		-363.615
446		136.155		-362.433
447		333.39		-245.625
448		444.279		-45.7893
449		439.759		179.371
450		326.975		366.97
451		144.866		470.309
452		-51.7882		472.901
453		-212.646		389.879
454		-307.635		257.375
455		-332.286		115.82
456		-301.94		-4.73627
457		-239.473		-91.1459
458		-163.695		-144.216
459		-84.114		-170.009
460		-3.5056		-171.627
461		74.9917		-146.573
462		141.904		-90.8557
463		181.187		-6.59225
464		176.545		92.38
465		120.885		181.313
466		23.2616		232.443
467		-91.2363		226.395
468		-189.472		161.238
469		-242.602		54.3333
470		-236.84		-64.2122
471		-177.497		-163.291
472		-84.71		-221.975
473		16.4476		-234.922
474		106.077		-210.117
475		174.774		-161.219
476		222.213		-99.4451
477		251.044		-29.6678
478		260.692		47.5351
479		245.399		129.936
480		197.962		208.331
481		116.896		266.016
482		12.3384		284.305
483		-93.5671		251.591
484		-173.101		170.966
485		-203.576		61.8391
486		-176.936		-46.0126
487		-103.382		-123.46
488		-7.0828		-152.864
489		83.8994		-133.537
490		148.398		-79.4811
491		178.41		-11.1165
492		178.264		54.2592
493		158.088		108.201
494		126.011		150.463
495		83.9318		183.249
496		29.2812		204.655
497		-38.5934		206.023
498		-111.841		175.497
499		-172.138		106.214
500		-195.712		4.42744
501		-163.7		-107.663
502		-72.8247		-197.123
503		59.3947		-232.081
504		198.297		-194.97
505		303.721		-90.9335
506		344.72		52.816
507		310.816		196.643
508		214.903		302.841
509		86.9057		348.316
510		-38.3901		330.341
511		-133.499		263.706
512		-185.163		171.764
513		-193.945		76.4648
514		-168.284		-7.79225
515		-117.377		-74.3519
516		-47.188		-119.99
517		38.513		-139.978
518		133.535		-126.44
519		224.845		-71.5911
520		292.139		25.7434
521		312.942		154.292
522		271.511		289.203
523		167.365		397.429
524		18.9749		448.119
525		-139.808		423.815
526		-269.676		327.584
527		-338.309		182.955
528		-330.408		26.6527
529		-251.623		-102.837
530		-125.404		-176.36
531		15.2501		-180.977
532		137.489		-121.006
533		216.286		-14.1284
534		238.223		114.869
535		201.608		240.045
536		114.489		338.446
537		-7.75142		392.457
538		-144.459		391.349
539		-271.812		332.849
540		-365.879		224.659
541		-407.067		84.8232
542		-385.232		-60.3907
543		-303.611		-181.673
544		-179.531		-253.964
545		-40.7757		-263.557
546		81.7479		-212.262
547		162.667		-116.784
548		189.003		-3.31354
549		162.714		100.672
550		98.1946		174.276
551		16.0764		207.852
552		-63.8889		203.129
553		-127.99		169.495
554		-170.092		118.692
555		-189.757		60.5766
556		-188.758		1.65302
557		-168.33		-53.5925
558		-128.79		-100.097
559		-71.5921		-130.546
560		-2.31731		-136.195
561		67.5947		-110.258
562		122.101		-52.3208
563		144.994		28.6471
564		125.983		114.725
565		65.7514		183.496
566		-22.5211		215.184
567		-116.341		199.681
568		-190.878		140.523
569		-227.108		53.9565
570		-217.873		-36.6259
571		-169.443		-108.66
572		-98.1062		-147.522
573		-23.5		-149.969
574		38.3022		-122.845
575		78.9634		-78.1725
576		97.8675		-27.3601
577		98.6124		22.5516
578		84.4637		68.9507
579		55.6434		110.506
580		10.1853		143.166
581		-52.0613		158.239
582		-124.732		144.455
583		-192.792		93.6117
584		-235.152		7.1665
585		-231.9		-99.9635
586		-173.341		-201.241
587		-66.5701		-266.322
588		64.0845		-272.131
589		183.89		-212.53
590		259.539		-102.039
591		271.198		28.4996
592		219.566		142.829
593		124.844		212.236
594		18.1292		225.014
595		-70.8142		188.524
596		-123.885		123.438
597		-138.711		53.3891
598		-125.283		-4.76754
599		-97.7076		-45.5585
600		-65.8583		-72.7469
601		-31.4189		-92.4944
602		9.89955		-106.289
603		61.7494		-108.027
604		120.47		-87.129
605		172.75		-35.9646
606		199.615		42.7346
607		185.107		133.103
608		125.189		210.245
609		31.9597		249.76
610		-69.4917		238.167
611		-150.464		179.016
612		-189.87		91.5184
613		-181.886		2.3653
614		-136.49		-65.1786
615		-73.0297		-99.4913
616		-10.5817		-102.345
617		39.6823		-84.0118
618		76.3072		-55.1419
619		103.222		-20.4546
620		122.564		22.0337
621		129.617		75.9705
622		113.567		139.216
623		64.2357		199.112
624		-18.8698		234.338
625		-120.723		223.536
626		-212.496		156.807
627		-261.317		43.9741
628		-244.1		-85.3952
629		-158.923		-191.358
630		-28.0734		-238.695
631		109.216		-210.992
632		211.398		-117.19
633		250.046		12.3703
634		219.234		138.365
635		135.114		227.389
636		26.7849		262.58
637		-76.3853		245.795
638		-154.673		191.711
639		-201.008		118.223
640		-217.12		38.8075
641		-206.666		-39.386
642		-170.434		-111.844
643		-106.901		-171.122
644		-17.6095		-204.252
645		86.6509		-196.021
646		183.849		-137.13
647		245.803		-32.6866
648		249.074		94.4986
649		186.605		209.122
650		73.784		275.917
651		-55.0751		274.129
652		-159.218		206.929
653		-207.572		100.817
654		-191.052		-5.20076
655		-125.24		-75.8163
656		-42.2157		-93.4598
657		24.3576		-63.7316
658		53.6579		-10.0915
659		44.8713		39.0236
660		14.2418		63.928
661		-15.6917		61.5234
662		-28.6076		43.8981
663		-22.1511		29.2747
664		-7.33644		30.7115
665		-0.641739		48.7339
666		-13.6174		71.5566
667		-45.8253		82.2533
668		-84.7469		68.5469
669		-112.318		29.7658
670		-114.195		-22.6069
671		-86.6579		-70.6682
672		-37.7138		-98.618
673		17.6331		-99.3635
674		64.7919		-75.975
675		95.3756		-37.9353
676		108.452		4.92195
677		107.321		46.8577
678		94.6211		86.508
679		69.4428		123.343
680		28.651		153.234
681		-28.298		166.759
682		-94.2892		152.25
683		-153.082		102.544
684		-183.497		21.7675
685		-168.077		-72.1375
686		-102.181		-151.533
687		1.2943		-188.827
688		114.545		-167.667
689		204.289		-90.3233
690		243.989		22.3659
691		223.469		138.621
692		151.715		227.452
693		52.03		269.239
694		-47.7602		260.747
695		-125.267		213.114
696		-169.378		144.793
697		-180.232		73.5324
698		-164.73		11.2601
699		-131.01		-36.4387
700		-85.1795		-67.4001
701		-31.6763		-79.4642
702		23.9664		-69.3598
703		72.71		-34.8118
704		102.463		21.5954
705		101.977		89.6838
706		66.412		152.553
707		1.41995		191.519
708		-76.9221		193.173
709		-146.937		155.151
710		-189.013		87.6781
711		-192.649		9.93639
712		-159.677		-57.0649
713		-102.424		-97.8195
714		-38.0493		-106.633
715		17.9677		-87.4335
716		56.1793		-49.958
717		73.8806		-4.85274
718		72.836		39.6884
719		56.1774		78.4796
720		26.6795		107.765
721		-12.7006		123.468
722		-56.9146		121.136
723		-97.5447		98.0578
724		-123.867		56.332
725		-126.461		4.61919
726		-101.749		-43.1748
727		-54.9143		-72.3945
728		0.844299		-73.4483
729		48.8858		-46.0497
730		75.5994		0.448761
731		75.6642		51.0323
732		53.4718		91.4537
733		20.0375		113.92
734		-12.9089		119.213
735		-38.4827		114.331
736		-56.929		107.165
737		-73.5476		101.301
738		-93.6254		93.9353
739		-117.422		78.1055
740		-138.254		47.9787
741		-145.02		4.16078
742		-128.007		-44.1346
743		-84.9741		-81.5897
744		-24.1679		-93.0084
745		37.5197		-70.2946
746		80.6139		-16.7483
747		90.5694		53.4461
748		63.2931		120.299
749		6.2977		165.255
750		-64.6996		177.336
751		-131.811		155.708
752		-180.745		108.176
753		-203.991		47.0081
754		-200.755		-15.4727
755		-174.719		-69.5853
756		-131.554		-108.712
757		-77.6703		-128.387
758		-20.4467		-125.636
759		31.1392		-99.622
760		66.9554		-53.3891
761		78.016		4.6928
762		60.0314		61.4123
763		16.4061		101.881
764		-41.303		114.54
765		-96.4026		95.8382
766		-132.719		52.21
767		-140.532		-1.967
768		-120.044		-49.7776
769		-80.7015		-78.187
770		-36.6698		-82.5192
771		-0.677385		-66.9788
772		20.7806		-41.1804
773		28.6404		-14.6625
774		28.5546		7.67658
775		26.015		26.8649
776		22.1741		47.3556
777		12.7906		72.3149
778		-9.02549		99.5238
779		-47.7266		120.425
780		-100.73		123.177
781		-157.017		98.4077
782		-200.079		44.8219
783		-214.128		-28.2704
784		-190.821		-103.021
785		-133.356		-159.031
786		-56.0181		-180.719
787		20.6676		-162.884
788		77.0335		-112.188
789		100.605		-44.1849
790		89.2144		22.5222
791		50.0708		72.3254
792		-4.1656		96.4692
793		-60.1466		93.6706
794		-107.31		68.0998
795		-139.026		26.4195
796		-151.814		-24.3817
797		-143.991		-77.5329
798		-115.15		-125.829
799		-67.0182		-161.061
800		-5.0574		-174.754
801		60.6108		-160.569
802		116.253		-117.468
803		147.887		-51.9929
804		145.957		21.969
805		109.384		86.4678
806		47.012		124.941
807		-24.5227		127.767
808		-85.9264		95.622
809		-121.451		39.1996
810		-123.715		-24.626
811		-95.2973		-78.574
812		-46.717		-110.3
813		8.06031		-115.275
814		56.4658		-96.4048
815		90.5103		-61.1331
816		107.328		-17.7853
817		107.519		26.993
818		92.7701		68.7275
819		64.4184		103.871
820		23.8051		128.184
821		-25.954		136.282
822		-78.2072		123.136
823		-122.628		87.0111
824		-147.525		32.241
825		-144.03		-30.0164
826		-110.37		-84.0998
827		-54.0133		-114.787
828		9.74444		-112.952
829		62.619		-79.4211
830		89.7568		-25.1048
831		85.0317		32.8685
832		52.884		77.4797
833		5.91667		97.8647
834		-40.5895		92.4747
835		-74.665		68.1269
836		-91.4267		35.6949
837		-93.1133		4.76202
838		-85.7855		-20.0661
839		-74.7649		-39.5057
840		-61.4279		-56.773
841		-43.1059		-73.4976
842		-16.0364		-86.9357
843		20.4594		-90.289
844		61.1663		-76.1554
845		95.4483		-41.2995
846		111.143		9.95157
847		100.088		65.792
848		62.465		110.832
849		7.61699		132.102
850		-49.2517		124.295
851		-92.983		91.6696
852		-114.128		45.7618
853		-111.684		0.157234
854		-91.7994		-34.9413
855		-63.5044		-55.6587
856		-34.0202		-63.6998
857		-6.27806		-62.82
858		20.1587		-54.9756
859		45.6869		-38.7062
860		67.2478		-10.8725
861		77.4843		29.284
862		67.5522		76.408
863		32.4087		118.384
864		-24.3512		139.951
865		-89.1997		129.333
866		-142.383		84.6616
867		-165.462		16.688
868		-149.292		-54.1292
869		-98.5285		-105.262
870		-30.22		-121.104
871		33.0449		-99.095
872		72.2787		-50.0846
873		79.202		7.13005
874		58.081		54.2593
875		21.7823		80.7572
876		-15.5208		86.4324
877		-44.9812		78.6186
878		-65.6549		66.0073
879		-82.0586		52.9331
880		-98.6279		37.4173
881		-114.724		13.9485
882		-123.424		-20.8782
883		-115.057		-63.5017
