Compute Correlation 
 
0		-145.966		-16.8864
1		-125.558		-32.5977
2		-101.807		-45.0596
3		-73.3979		-51.2109
4		-42.687		-46.9314
5		-15.4273		-30.3703
6		1.83874		-4.01996
7		5.12024		25.6913
8		-4.89249		51.0555
9		-23.1141		66.4975
10		-42.5988		70.8628
11		-57.9189		67.3562
12		-67.545		61.2141
13		-73.9553		56.4231
14		-81.4533		53.3021
15		-92.9012		48.277
16		-107.158		36.0115
17		-118.629		12.8107
18		-119.272		-20.4344
19		-102.146		-57.26
20		-64.9062		-87.1416
21		-11.6866		-98.8822
22		47.3796		-84.476
23		98.7136		-41.9764
24		128.878		23.5211
25		127.977		100.837
26		92.027		175.017
27		24.0247		230.235
28		-66.1509		252.743
29		-162.816		233.645
30		-246.578		171.371
31		-297.616		73.477
32		-300.113		-42.9975
33		-247.135		-153.501
34		-144.549		-230.75
35		-12.1789		-251.748
36		119.172		-205.286
37		214.908		-97.3004
38		246.44		48.3237
39		200.572		194.691
40		85.0895		301.7
41		-71.8656		337.885
42		-228.989		290.397
43		-343.564		169.625
44		-384.029		6.68738
45		-339.251		-155.478
46		-221.546		-274.552
47		-62.6562		-320.778
48		95.7636		-284.761
49		213.954		-179.067
50		264.549		-33.6219
51		238.934		113.201
52		148.191		224.965
53		18.973		276.191
54		-114.111		257.933
55		-217.453		178.978
56		-266.609		62.7654
57		-251.924		-58.9979
58		-180.469		-154.543
59		-73.8358		-200.179
60		37.7973		-186.416
61		124.013		-120.398
62		162.769		-23.7092
63		146.779		74.1143
64		85.5107		144.676
65		1.9071		169.616
66		-75.3803		146.325
67		-121.726		88.3591
68		-124.854		20.2445
69		-88.7114		-31.564
70		-31.4259		-48.2861
71		21.8917		-25.408
72		48.7454		26.1743
73		37.5879		84.7925
74		-8.22083		126.507
75		-72.1657		134.125
76		-131.121		103.32
77		-163.981		43.7501
78		-159.078		-24.9236
79		-117.789		-80.2648
80		-53.4257		-104.702
81		13.731		-90.9092
82		63.1259		-43.4128
83		79.9837		23.5502
84		59.0012		90.6945
85		5.05072		139.105
86		-68.7073		154.868
87		-144.342		132.009
88		-203.278		73.4902
89		-230.238		-9.54745
90		-216.479		-100.023
91		-161.894		-178.305
92		-75.542		-226.341
93		25.7556		-231.859
94		120.788		-191.667
95		188.778		-113.038
96		214.515		-12.5019
97		192.343		87.9003
98		127.738		165.969
99		35.9403		204.767
100		-61.9057		196.532
101		-143.862		144.052
102		-192.019		59.4163
103		-195.825		-39.1205
104		-153.486		-130.987
105		-71.6883		-196.888
106		35.7093		-221.675
107		149.528		-196.575
108		247.625		-121.018
109		308.053		-3.96117
110		313.216		135.87
111		254.625		271.777
112		137.007		373.588
113		-20.0042		414.572
114		-184.151		379.282
115		-317.229		269.783
116		-384.928		107.714
117		-367.068		-69.3888
118		-264.798		-217.167
119		-101.986		-296.523
120		80.1802		-285.021
121		234.062		-183.871
122		318.644		-18.1547
123		310.808		169.858
124		211.409		332.177
125		44.5815		427.816
126		-149.174		433.086
127		-323.758		346.813
128		-438.917		189.566
129		-469.428		-2.30531
130		-410.091		-185.825
131		-275.879		-321.341
132		-97.7214		-381.075
133		84.8484		-354.702
134		232.556		-251.04
135		314.999		-95.6533
136		317.267		75.1678
137		243.099		222.87
138		113.687		315.71
139		-37.8045		336.222
140		-174.755		285.074
141		-266.403		180.118
142		-295.325		50.8612
143		-260.892		-69.9861
144		-177.82		-155.248
145		-70.5459		-189.617
146		34.4303		-171.84
147		115.59		-112.569
148		160.655		-29.239
149		167.215		59.775
150		140.351		139.606
151		88.928		200.768
152		22.3946		238.626
153		-50.7863		251.632
154		-123.035		239.792
155		-186.794		204.324
156		-234.104		148.504
157		-257.427		78.8715
158		-251.641		5.64996
159		-216.343		-58.3701
160		-157.3		-100.463
161		-86.1587		-111.289
162		-18.2785		-87.7084
163		30.6968		-34.097
164		48.4815		38.2612
165		29.0049		113.425
166		-26.1129		174.021
167		-107.596		204.695
168		-199.897		195.246
169		-283.711		143.078
170		-339.459		54.6237
171		-351.463		-54.7036
172		-312.217		-162.563
173		-225.682		-243.963
174		-108.267		-277.312
175		13.5784		-250.862
176		109.295		-167.494
177		152.469		-45.813
178		129.001		83.5598
179		42.3273		185.941
180		-86.4634		232.555
181		-224.121		209.232
182		-334.749		120.801
183		-390.211		-10.4661
184		-377.906		-151.777
185		-303.385		-269.634
186		-187.273		-339.069
187		-58.0564		-349.332
188		56.3781		-304.608
189		135.494		-220.369
190		169.321		-117.435
191		158.003		-16.2484
192		108.976		66.8503
193		33.6495		120.894
194		-54.9931		139.894
195		-143.497		122.098
196		-218.383		69.8602
197		-266.982		-9.80779
198		-279.314		-104.805
199		-250.76		-198.726
200		-184.461		-273.491
201		-92.056		-313.478
202		8.09233		-309.884
203		95.056		-263.669
204		150.662		-185.828
205		164.229		-94.7181
206		135.159		-11.3216
207		72.6828		46.021
208		-6.94092		65.791
209		-84.6468		45.3725
210		-142.905		-9.1474
211		-169.157		-84.9552
212		-157.882		-165.483
213		-111.277		-233.703
214		-38.6967		-275.325
215		45.0577		-281.619
216		122.578		-251.499
217		177.639		-192.283
218		199.313		-118.532
219		185.339		-48.716
220		143.413		-0.183426
221		89.5076		16.2132
222		43.2307		-0.0126343
223		21.4441		-38.2749
224		32.2848		-80.0522
225		71.8646		-105.113
226		125.122		-98.7586
227		170.793		-57.4533
228		188.873		9.36311
229		167.899		82.083
230		109.399		137.462
231		27.8554		156.573
232		-53.7967		131.372
233		-111.55		67.6262
234		-128.032		-16.6978
235		-98.0177		-96.9372
236		-30.0848		-149.217
237		55.9165		-157.547
238		134.621		-118.458
239		182.343		-41.9986
240		183.676		51.0163
241		135.789		134.62
242		49.3742		184.667
243		-53.956		185.38
244		-147.2		133.822
245		-205.089		41.0949
246		-211.018		-70.207
247		-161.885		-171.786
248		-69.3841		-237.282
249		42.8413		-249.671
250		145.592		-206.247
251		212.291		-119.57
252		226.531		-13.9614
253		186.667		81.484
254		106.026		141.219
255		8.72964		150.34
256		-77.4501		108.312
257		-128.891		28.3888
258		-132.195		-66.8018
259		-86.9282		-151.837
260		-4.64149		-205.119
261		95.0197		-213.704
262		189.605		-175.377
263		258.958		-98.0016
264		288.996		3.09912
265		273.746		108.699
266		215.734		199.312
267		125.108		258.41
268		17.8345		275.013
269		-86.8275		245.533
270		-169.45		174.676
271		-213.877		75.1248
272		-210.492		-34.2361
273		-158.626		-131.514
274		-67.4099		-195.977
275		45.3486		-212.414
276		156.22		-174.702
277		240.65		-87.751
278		278.016		32.7321
279		256.258		162.727
280		175.109		274.301
281		47.1816		341.227
282		-103.552		344.835
283		-245.923		278.911
284		-347.899		152.426
285		-383.985		-10.9362
286		-342.028		-176.921
287		-227.552		-308.078
288		-63.9929		-372.894
289		111.834		-354.35
290		258.365		-255.364
291		339.942		-99.1622
292		336.502		75.9913
293		249.361		226.521
294		101.188		315.047
295		-69.9908		320.31
296		-221.019		242.58
297		-315.051		103.041
298		-330.876		-62.4981
299		-267.589		-213.497
300		-143.626		-315.228
301		9.14783		-347.048
302		154.282		-306.43
303		259.964		-208.134
304		306.292		-79.2358
305		289.043		48.3802
306		219.398		146.038
307		120.018		194.921
308		18.6392		189.91
309		-59.2175		139.86
310		-96.6329		64.3427
311		-89.1646		-12.2831
312		-45.1828		-67.8814
313		17.4502		-88.6611
314		77.386		-72.5763
315		116.595		-28.9375
316		125.737		25.6082
317		106.279		73.2901
318		68.711		101.349
319		27.6681		105.84
320		-4.02554		91.778
321		-19.9816		69.781
322		-21.7537		50.8202
323		-16.8122		41.4061
324		-14.1211		41.2685
325		-19.4546		44.3879
326		-32.608		42.695
327		-47.6996		30.5679
328		-56.2819		7.97273
329		-51.6937		-19.1917
330		-32.5759		-41.6328
331		-3.93425		-50.8497
332		24.6781		-43.0305
333		42.9908		-20.952
334		44.1591		6.86435
335		27.5118		29.2702
336		-1.08756		36.5267
337		-31.2112		23.6886
338		-51.2477		-7.77922
339		-51.9305		-50.4602
340		-28.9451		-93.0907
341		15.9178		-123.495
342		75.0901		-131.551
343		136.763		-111.643
344		187.299		-64.2373
345		214.202		3.64548
346		209.213		79.3357
347		170.91		146.93
348		105.964		191.001
349		28.3098		200.828
350		-44.0034		173.878
351		-93.6696		117.175
352		-109.224		45.7285
353		-88.5574		-21.7715
354		-39.4098		-68.6187
355		23.486		-85.0531
356		83.5584		-70.6135
357		127.792		-33.01
358		150.187		15.8535
359		151.983		64.8346
360		138.884		107.226
361		116.882		141.581
362		88.9413		169.589
363		54.2625		192.414
364		10.4542		207.7
365		-42.636		209.12
366		-99.6696		189.011
367		-149.22		142.983
368		-176.668		74.2006
369		-169.68		-5.01862
370		-123.989		-75.534
371		-46.8259		-117.138
372		43.7745		-115.615
373		123.85		-68.2983
374		170.899		14.1459
375		171.063		110.484
376		123.514		195.232
377		40.603		246.234
378		-56.0572		250.929
379		-142.019		209.391
380		-196.728		133.552
381		-208.573		43.2828
382		-177.116		-39.1756
383		-112.358		-94.7786
384		-31.6398		-111.946
385		44.8175		-88.8033
386		98.7345		-33.1729
387		118.014		39.5439
388		99.5975		110.199
389		50.2438		160.735
390		-15.1535		178.989
391		-77.5897		162.187
392		-119.44		117.938
393		-129.886		62.093
394		-108.489		13.8358
395		-65.4838		-10.603
396		-18.4496		-3.49141
397		13.7078		31.6244
398		17.4013		81.058
399		-10.7648		125.762
400		-62.7214		148.078
401		-121.756		138.015
402		-168.395		96.7661
403		-187.191		36.2588
404		-171.976		-25.0193
405		-127.818		-68.3094
406		-69.1729		-80.7493
407		-15.0658		-59.3813
408		16.9355		-11.8628
409		16.0076		46.0793
410		-18.8926		95.4194
411		-78.8929		119.282
412		-147.749		107.551
413		-206.201		59.5416
414		-236.961		-15.7724
415		-229.155		-101.911
416		-181.22		-178.872
417		-101.578		-228.067
418		-6.85857		-237.062
419		82.0457		-202.972
420		145.213		-133.521
421		168.91		-45.3287
422		149.315		40.299
423		93.6147		102.98
424		18.0296		128.686
425		-56.6925		113.373
426		-110.959		63.713
427		-131.457		-5.19537
428		-114.22		-74.3227
429		-64.8789		-125.897
430		3.68156		-147.704
431		75.2385		-135.374
432		134.367		-92.3595
433		169.63		-28.0706
434		175.221		44.9049
435		151.124		113.549
436		102.263		166.546
437		37.2181		195.664
438		-33.1335		196.585
439		-96.9971		169.412
440		-143.211		118.924
441		-163.067		54.3668
442		-152.253		-11.5588
443		-112.443		-64.7104
444		-51.9173		-92.4105
445		15.3498		-86.6799
446		72.2849		-46.9212
447		102.637		18.8751
448		95.3334		95.0603
449		48.0867		161.498
450		-30.9113		198.417
451		-123.966		191.813
452		-207.621		137.917
453		-258.449		45.3488
454		-259.5		-65.9664
455		-205.61		-169.192
456		-105.893		-237.381
457		17.6039		-250.943
458		135.096		-203.641
459		216.869		-105.17
460		241.589		20.6965
461		202.628		142.161
462		110.387		228.045
463		-10.2461		256.525
464		-126.678		221.324
465		-207.662		133.489
466		-231.918		18.2013
467		-193.813		-92.3452
468		-104.515		-167.847
469		11.5189		-187.947
470		123.48		-147.239
471		202.483		-56.0419
472		228.85		62.9605
473		196.614		181.027
474		114.311		270.791
475		2.15509		312.911
476		-113.459		300.403
477		-206.7		239.781
478		-258.64		148.861
479		-261.703		51.8463
480		-221.149		-27.0915
481		-153.211		-70.128
482		-80.3067		-70.3183
483		-24.5909		-33.0603
484		-1.68166		26.0039
485		-16.4484		86.0754
486		-62.1921		127.713
487		-123.476		138.673
488		-181.616		117.163
489		-220.9		71.4692
490		-233.351		16.2504
491		-220.454		-33.0073
492		-191.44		-65.2668
493		-159.058		-77.0582
494		-134.639		-72.5211
495		-124.361		-60.7241
496		-127.942		-51.6318
497		-139.87		-52.4374
498		-152.258		-65.5693
499		-157.932		-88.7769
500		-152.541		-116.775
501		-135.188		-143.413
502		-107.837		-163.405
503		-74.2012		-173.174
504		-38.7959		-170.96
505		-6.40376		-156.704
506		18.2568		-132.092
507		31.0844		-100.776
508		29.5943		-68.3711
509		14.1333		-41.7388
510		-11.326		-27.3576
511		-39.5031		-29.1758
512		-61.5244		-46.7949
513		-69.6436		-74.9248
514		-59.9774		-104.609
515		-34.0987		-125.952
516		1.26173		-131.358
517		36.3644		-118.016
518		61.6105		-88.6608
519		70.4391		-50.4014
520		60.9103		-12.2539
521		35.5821		17.5294
522		0.079422		33.311
523		-38.756		32.6556
524		-74.2884		15.9113
525		-100.73		-14.5182
526		-113.279		-54.5775
527		-108.371		-98.4973
528		-84.5267		-138.72
529		-43.7025		-166.539
530		7.60254		-173.933
531		58.4885		-156.354
532		95.7399		-115.453
533		107.673		-60.3206
534		88.5635		-6.15553
535		41.8661		29.7782
536		-19.401		33.7941
537		-75.7633		1.03049
538		-107.164		-61.8239
539		-99.662		-137.638
540		-50.5364		-203.689
541		30.1529		-238.706
542		122.216		-229.704
543		201.349		-176.244
544		246.471		-90.7059
545		245.978		5.41893
546		200.957		87.89
547		124.556		136.639
548		37.9492		141.166
549		-35.6884		102.983
550		-77.3664		34.6956
551		-76.9865		-43.7359
552		-35.514		-110.364
553		35.7049		-146.796
554		118.106		-142.601
555		190.674		-97.616
556		235.139		-21.714
557		240.39		67.852
558		205.047		150.87
559		137.558		209.256
560		53.7988		231.522
561		-27.2056		215.433
562		-88.261		168.156
563		-118.305		103.905
564		-114.841		39.8051
565		-83.9102		-8.75434
566		-37.7543		-31.9439
567		8.97215		-27.468
568		43.2407		-0.317657
569		56.7825		39.3779
570		47.577		79.5643
571		19.5322		109.527
572		-19.2792		122.349
573		-59.1484		116.065
574		-91.2774		93.4559
575		-109.739		60.7373
576		-112.485		25.6259
577		-101.297		-4.69794
578		-80.8215		-25.2403
579		-56.9924		-34.095
580		-35.3192		-32.4216
581		-19.5109		-23.5743
582		-10.8332		-11.7078
583		-8.3479		-0.361874
584		-9.86025		8.47153
585		-13.1288		14.4907
586		-16.7892		18.475
587		-20.5934		21.3113
588		-24.9193		23.2098
589		-29.8972		23.5594
590		-34.7241		21.5136
591		-37.6603		16.9655
592		-36.8328		11.2945
593		-31.4903		7.31937
594		-23.013		8.27809
595		-15.0004		16.2009
596		-12.1578		30.4578
597		-18.3168		47.3114
598		-34.4403		60.9075
599		-57.6055		65.4674
600		-81.6087		57.8145
601		-99.1264		39.0964
602		-104.633		14.8279
603		-96.8519		-6.92896
604		-79.6472		-18.6118
605		-60.871		-16.2226
606		-49.549		-1.1518
607		-52.4701		20.0137
608		-71.4997		37.6627
609		-102.637		42.501
610		-137.142		28.8319
611		-164.3		-3.37938
612		-174.815		-48.3132
613		-163.73		-95.9533
614		-131.98		-134.988
615		-86.2118		-156.036
616		-37.0192		-154.29
617		3.88533		-130.901
618		26.8024		-92.8035
619		26.7138		-51.0135
620		4.81746		-17.7962
621		-31.5246		-3.34988
622		-70.5352		-12.8491
623		-99.1416		-44.6998
624		-106.697		-90.6398
625		-88.2295		-137.837
626		-46.1544		-172.505
627		10.2215		-183.977
628		67.3636		-167.934
629		111.534		-127.673
630		132.84		-72.9569
631		127.945		-16.8809
632		100.572		28.1351
633		59.7653		53.8027
634		16.7216		57.766
635		-18.5886		43.3405
636		-39.8294		17.6113
637		-45.1337		-11.1608
638		-36.4639		-35.7912
639		-18.1416		-51.4409
640		4.66191		-55.8322
641		26.9496		-48.8157
642		44.3542		-31.8267
643		53.3139		-7.5675
644		51.3294		20.1136
645		37.4521		46.4437
646		12.8204		66.3431
647		-19.1514		75.4714
648		-53.2532		71.3902
649		-83.6389		54.3343
650		-105.288		27.1912
651		-115.195		-5.35803
652		-112.81		-38.1659
653		-99.6587		-66.8282
654		-78.4492		-88.2988
655		-52.2431		-100.813
656		-24.1078		-103.444
657		2.70448		-95.8316
658		24.4432		-78.4352
659		36.9782		-53.2731
660		36.7096		-24.6039
661		22.1138		1.13382
662		-4.75536		16.57
663		-37.7141		15.6742
664		-67.4752		-3.75621
665		-84.2035		-38.5084
666		-80.7841		-80.168
667		-55.5289		-117.317
668		-13.1583		-139.039
669		36.4383		-138.426
670		81.2441		-114.757
671		110.805		-73.5488
672		119.194		-24.5614
673		106.267		21.3521
674		76.9821		55.3257
675		39.338		72.4672
676		1.8772		72.3365
677		-28.3449		58.1562
678		-46.8887		35.3924
679		-52.2064		10.3276
680		-45.419		-11.0554
681		-29.9101		-23.9097
682		-10.806		-25.26
683		5.81269		-14.6871
684		14.1266		5.25193
685		10.1109		29.2553
686		-7.07237		50.432
687		-34.4722		62.2487
688		-66.0137		60.6579
689		-94.3932		45.5344
690		-113.559		20.7106
691		-120.756		-7.52171
692		-117.234		-32.8626
693		-107.277		-51.3353
694		-96.0381		-62.4518
695		-87.2072		-68.72
696		-81.6387		-73.8148
697		-77.5544		-80.4011
698		-72.1162		-88.7387
699		-63.4599		-96.7723
700		-52.0568		-101.594
701		-40.6528		-101.437
702		-32.8137		-97.0655
703		-30.866		-91.7811
704		-34.3551		-89.9719
705		-39.8722		-94.955
706		-42.3833		-107.208
707		-37.4159		-123.899
708		-23.0283		-139.94
709		-0.631882		-150.027
710		25.6551		-150.673
711		50.7051		-141.301
712		70.2424		-124.032
713		82.0112		-102.464
714		85.8626		-80.2021
715		82.9967		-59.8875
716		74.9953		-43.0643
717		63.2754		-30.6574
718		49.1899		-23.4937
719		34.5071		-22.3549
720		21.7065		-27.4452
721		13.6391		-37.6436
722		12.5383		-50.1549
723		18.8577		-61.0109
724		30.6452		-66.3841
725		43.9588		-64.1444
726		54.2865		-54.8531
727		58.3575		-41.5964
728		55.4487		-28.6529
729		47.505		-19.6105
730		37.99		-15.8797
731		30.0603		-16.3612
732		25.0267		-18.4262
733		21.9205		-19.6562
734		18.3847		-19.3796
735		12.3869		-19.144
736		3.79138		-21.8415
737		-5.10606		-29.9483
738		-10.425		-43.8278
739		-8.52854		-61.0344
740		2.09872		-77.0332
741		19.8899		-87.0105
742		40.6428		-87.8931
743		59.1488		-79.5998
744		71.2016		-64.9721
745		75.0453		-48.4999
746		71.6751		-34.5355
747		64.0167		-25.8498
748		55.5516		-23.1008
749		49.1223		-25.2304
750		46.4024		-30.3339
751		48.0361		-36.405
752		54.0449		-41.5971
753		64.0244		-44.0867
754		76.9213		-41.9508
755		90.6155		-33.4747
756		101.811		-17.9669
757		106.666		3.30719
758		102.164		26.7338
759		87.68		47.0259
760		65.9053		58.9708
761		42.4255		59.6101
762		23.8651		49.8239
763		15.2551		34.4189
764		17.7871		20.4557
765		28.0671		14.4047
766		39.3553		19.3601
767		44.3506		33.6007
768		38.3199		51.2236
769		21.1616		64.6218
770		-2.53738		67.7173
771		-25.475		58.5057
772		-40.7275		39.7946
773		-44.5713		17.8701
774		-37.8179		-0.234455
775		-25.1735		-9.60808
776		-13.0471		-9.23208
777		-6.87175		-2.00737
778		-9.10741		6.78352
779		-18.6525		11.7505
780		-31.6916		9.37981
781		-43.3899		-0.995594
782		-49.6161		-17.399
783		-48.0559		-36.2229
784		-38.5065		-53.459
785		-22.5553		-65.6717
786		-3.00797		-70.5503
787		16.6631		-67.1581
788		32.8133		-56.0699
789		42.1968		-39.4581
790		42.7095		-20.978
791		34.1894		-5.21449
792		18.9279		3.4071
793		1.48404		2.03711
794		-12.3952		-9.37092
795		-17.539		-27.6183
796		-11.1952		-46.9685
797		5.80925		-60.891
798		29.1388		-64.2424
799		52.308		-55.034
800		68.8247		-35.0779
801		74.2762		-9.26659
802		67.5581		16.1738
803		50.8472		35.7102
804		28.4731		46.0102
805		5.28819		46.4416
806		-14.7517		38.5751
807		-29.297		25.1196
808		-37.5345		8.88464
809		-39.6419		-7.80048
810		-36.2319		-23.1254
811		-28.1254		-35.5367
812		-16.4972		-43.55
813		-3.162		-45.8966
814		9.34248		-41.9968
815		18.0964		-32.5032
816		20.5314		-19.5638
817		15.2845		-6.5738
818		2.8093		2.57476
819		-14.5233		4.50056
820		-32.8818		-2.74732
821		-47.8279		-19.1404
822		-55.2964		-42.6084
823		-52.457		-69.4103
824		-38.3198		-94.8028
825		-14.0383		-113.876
826		17.109		-122.474
827		50.1048		-118.109
828		79.0031		-100.748
829		98.1473		-73.2053
830		103.611		-40.9002
831		94.4776		-10.8215
832		73.4718		10.1845
833		46.5791		17.3703
834		21.5752		9.64594
835		5.82722		-9.87178
836		4.06128		-34.6264
837		16.876		-56.5419
838		40.5599		-68.4777
839		68.2978		-66.3772
840		92.3417		-50.3748
841		106.375		-24.5211
842		107.268		4.7025
843		95.6865		30.4901
844		75.4886		47.69
845		52.2319		54.0415
846		31.3998		50.3904
847		16.9205		39.9825
848		10.3634		27.2037
849		10.9124		16.2245
850		15.9742		9.93209
851		22.1471		9.36975
852		26.2489		13.7309
853		26.1525		20.8293
854		21.2497		27.8781
855		12.4542		32.3628
856		1.75864		32.7662
857		-8.51822		28.9282
858		-16.5447		21.9196
859		-21.5534		13.4663
860		-23.9453		5.1481
861		-24.8663		-2.28705
862		-25.4341		-9.17116
863		-25.9783		-16.5817
864		-25.6879		-25.5563
865		-22.8891		-36.2274
866		-15.881		-47.3272
867		-3.96161		-56.3738
868		11.8562		-60.5296
869		28.8333		-57.7961
870		43.2791		-48.0072
871		51.8252		-33.1501
872		52.6666		-16.8311
873		46.2351		-3.08934
874		35.0311		4.95115
875		22.7075		6.03771
876		12.8197		1.00686
877		7.76177		-7.7454
