Compute Correlation 
 
0		278.435		-459.117
1		443.222		-319.668
2		543.994		-117.78
3		552.195		119.371
4		451.612		346.973
5		251.261		510.484
6		-8.90172		562.756
7		-265.193		483.297
8		-449.516		289.974
9		-513.277		36.1826
10		-445.193		-206.709
11		-274.612		-374.491
12		-58.7854		-431.778
13		139.839		-380.85
14		275.667		-254.754
15		331.723		-99.4062
16		317.33		45.6448
17		255.311		158.57
18		167.247		234.733
19		65.2051		277.278
20		-46.4678		286.527
21		-162.29		255.798
22		-267.157		176.55
23		-335.351		49.3646
24		-339.417		-106.934
25		-264.768		-255.261
26		-121.701		-351.543
27		52.9893		-362.779
28		207.352		-282.886
29		294.136		-137.761
30		289.828		23.7799
31		203.616		149.281
32		72.0668		202.969
33		-57.4146		177.584
34		-145.798		92.8401
35		-174.987		-17.2388
36		-148.694		-120.409
37		-83.3314		-197.046
38		4.08056		-241.061
39		103.122		-252.623
40		208.374		-229.402
41		311.328		-163.607
42		392.85		-47.9392
43		423.419		112.824
44		373.762		292.56
45		231.645		444.705
46		15.6585		516.064
47		-223.096		468.783
48		-415.031		300.155
49		-497.215		49.668
50		-438.704		-211.755
51		-254.112		-406.709
52		1.26166		-479.634
53		252.657		-415.858
54		433.502		-243.269
55		506.914		-17.1034
56		472.232		203.619
57		355.836		376.218
58		193.393		482.319
59		14.1682		522.357
60		-164.569		502.886
61		-332.013		426.303
62		-473.226		290.11
63		-562.697		96.016
64		-568.521		-137.714
65		-466.776		-370.165
66		-258.661		-544.454
67		20.0044		-606.476
68		304.144		-527.569
69		519.379		-319.747
70		608.346		-35.0716
71		551.379		251.579
72		372.037		468.778
73		125.465		571.919
74		-124.045		553.608
75		-325.099		438.039
76		-451.011		264.502
77		-497.963		70.0468
78		-473.89		-119.703
79		-387.077		-288.606
80		-242.373		-421.273
81		-47.0309		-496.098
82		178.909		-487.156
83		396.576		-375.921
84		553.581		-166.58
85		600.983		104.982
86		514.613		376.205
87		309.518		577.265
88		38.5992		656.998
89		-225.709		602.952
90		-418.956		445.272
91		-508.356		242.033
92		-501.229		53.1385
93		-434.556		-84.1476
94		-351.846		-165.961
95		-280.029		-214.264
96		-218.713		-256.281
97		-147.033		-303.193
98		-43.4042		-340.508
99		93.7824		-335.722
100		237.015		-259.013
101		338.109		-105.171
102		350.396		95.9873
103		253.017		287.333
104		64.2315		407.026
105		-163.545		414.688
106		-364.587		307.929
107		-485.917		121.31
108		-505.588		-90.7691
109		-435		-277.487
110		-306.038		-408.968
111		-151.96		-479.608
112		6.45596		-497.987
113		162.138		-471.792
114		311.376		-398.617
115		440.438		-269.22
116		519.902		-81.4207
117		512.849		144.674
118		394.289		361.461
119		171.458		505.008
120		-107.597		519.703
121		-364.512		385.04
122		-517.775		130.559
123		-514.917		-170.045
124		-354.621		-424.551
125		-88.0182		-556.504
126		201.534		-532.697
127		430.552		-371.837
128		544.495		-131.857
129		531.401		116.306
130		416.313		314.976
131		242.587		434.218
132		51.8447		470.481
133		-126.957		434.463
134		-276.04		338.487
135		-379.94		192.223
136		-418.878		8.61901
137		-371.919		-186.04
138		-230.169		-347.937
139		-12.1963		-424.544
140		229.702		-375.521
141		420.27		-196.05
142		487.863		70.8242
143		395.873		342.442
144		163.447		524.996
145		-136.426		550.863
146		-402.915		407.657
147		-546.803		144.71
148		-525.59		-146.869
149		-358.106		-371.584
150		-112.401		-466.961
151		126.282		-423.909
152		291.273		-281.921
153		356.922		-103.799
154		338.595		55.5668
155		273.313		170.095
156		193.985		243.769
157		112.451		294.536
158		20.2089		332.771
159		-95.3765		348.619
160		-230.998		316.516
161		-357.442		214.289
162		-427.695		44.9096
163		-400.149		-153.392
164		-264.341		-316.887
165		-54.0739		-382.962
166		161.177		-320.5
167		304.125		-147.848
168		323.634		72.0677
169		217.728		258.156
170		33.8149		346.461
171		-154.088		316.916
172		-279.521		198.533
173		-311.905		51.2665
174		-265.298		-65.2114
175		-184.511		-119.246
176		-117.471		-117.533
177		-89.4713		-94.1142
178		-93.0416		-85.7805
179		-97.7762		-108.656
180		-73.1359		-149.254
181		-10.1454		-174.495
182		70.9528		-154.063
183		131.541		-81.4318
184		137.494		19.2201
185		80.4851		104.635
186		-15.0704		136.229
187		-104.042		102.275
188		-145.196		25.4461
189		-124.499		-49.2309
190		-63.5742		-79.7502
191		-7.8371		-51.7068
192		-0.296272		12.0924
193		-55.3803		63.1757
194		-147.699		54.59
195		-222.901		-30.7893
196		-225.811		-166.562
197		-131.381		-292.084
198		38.1117		-340.984
199		219.39		-274.77
200		335.723		-104.351
201		332.371		111.8
202		202.466		292.297
203		-9.23131		368.333
204		-226.127		312.856
205		-372.916		149.942
206		-405.858		-58.8121
207		-326.468		-242.715
208		-174.092		-350.555
209		-3.61835		-366.062
210		138.795		-305.111
211		229.842		-199.478
212		268.05		-78.335
213		261.753		41.7964
214		216.058		154.455
215		128.243		252.282
216		-5.32072		317.297
217		-175.759		321.129
218		-351.824		237.406
219		-482.389		60.2881
220		-513.248		-181.887
221		-411.544		-427.582
222		-185.657		-600.233
223		110.592		-636.965
224		393.419		-515.012
225		578.538		-263.234
226		611.893		47.0515
227		488.191		328.002
228		249.727		506.28
229		-32.616		545.77
230		-286.337		453.422
231		-459.834		268.311
232		-531.864		41.7558
233		-506.99		-180.743
234		-403.225		-367.985
235		-240.921		-501.013
236		-39.2158		-565.938
237		179.797		-549.442
238		384.824		-441.948
239		534.517		-247.369
240		586.232		7.15028
241		512.338		269.572
242		316.274		473.804
243		39.0922		560.659
244		-248.981		500.337
245		-470.214		305.926
246		-565.686		30.946
247		-514.998		-248.68
248		-341.076		-460.55
249		-98.7975		-558.525
250		146.444		-533.286
251		340.164		-408.111
252		451.472		-224.332
253		473.857		-24.9895
254		417.341		155.654
255		299.024		293.994
256		138.187		373.312
257		-42.4804		380.477
258		-213.164		307.932
259		-336.857		161.048
260		-377.123		-34.2028
261		-312.51		-230.425
262		-150.877		-369.334
263		65.2627		-401.945
264		268.217		-310.271
265		388.175		-119.669
266		381.046		106.081
267		248.474		287.161
268		39.8073		359.063
269		-166.375		299.274
270		-293.966		136.925
271		-300.495		-59.5088
272		-193.849		-211.321
273		-27.1752		-262.528
274		125.393		-202.05
275		200.836		-65.7223
276		172.743		81.7625
277		59.4899		175.837
278		-87.0824		178.528
279		-205.758		91.2351
280		-251.051		-50.0784
281		-208.541		-192.89
282		-95.5843		-289.638
283		50.1036		-313.162
284		186.502		-261.124
285		280.127		-150.733
286		311.544		-9.33348
287		274.585		133.276
288		173.593		248.24
289		22.7054		308.496
290		-152.223		291.124
291		-312.385		183.952
292		-410.312		-4.85557
293		-402.245		-239.673
294		-265.999		-459.408
295		-16.7619		-592.151
296		288.285		-579.649
297		562.163		-402.529
298		715.336		-94.6317
299		688.528		261.985
300		477.541		561.927
301		138.727		712.679
302		-228.517		667.867
303		-515.93		443.878
304		-643.628		113.036
305		-585.592		-223.438
306		-374.022		-471.049
307		-82.6183		-571.714
308		202.364		-516.776
309		410.379		-340.854
310		503.469		-102.507
311		477.925		137.742
312		354.487		332.599
313		165.25		452.593
314		-55.2614		482.811
315		-272.212		418.236
316		-448.778		263.276
317		-546.665		36.3575
318		-533.226		-224.756
319		-394.499		-463.679
320		-148.008		-616.586
321		153.128		-632.42
322		430.475		-494.429
323		603.914		-232.516
324		620.254		81.3975
325		474.619		355.533
326		214.423		510.082
327		-76.9359		505.67
328		-310.426		356.325
329		-423.069		121.533
330		-397.776		-118.676
331		-263.795		-294.277
332		-79.2994		-368.257
333		94.5645		-343.294
334		215.921		-251.624
335		271.686		-135.33
336		272.614		-27.811
337		239.476		55.1508
338		189.505		112.616
339		130.519		148.634
340		64.4299		163.247
341		-4.28015		150.678
342		-62.4686		105.604
343		-90.1758		32.7079
344		-70.5139		-47.9531
345		-2.00831		-105.074
346		94.692		-109.31
347		181.41		-49.1755
348		217.876		59.3908
349		181.047		176.332
350		78.2953		253.644
351		-53.2347		257.301
352		-162.016		184.11
353		-205.485		64.5396
354		-170.019		-50.636
355		-77.4637		-113.826
356		25.3565		-102.839
357		89.1411		-30.8473
358		85.5719		60.8243
359		20.1582		123.387
360		-71.6657		124.334
361		-142.85		62.4781
362		-157.952		-32.8528
363		-109.622		-117.421
364		-20.5345		-154.094
365		69.3994		-130.016
366		123.263		-60.7437
367		124.226		19.7972
368		81.1894		77.3668
369		21.161		93.6813
370		-26.4848		72.7713
371		-44.8758		35.1696
372		-35.8985		4.31111
373		-15.4176		-6.65192
374		-1.30962		-0.348465
375		-1.87776		9.36703
376		-11.4463		8.46782
377		-15.328		-6.82494
378		-0.701363		-26.6728
379		33.4942		-33.2934
380		73.8242		-12.1923
381		98.632		37.8512
382		89.787		102.13
383		43.1052		156.474
384		-28.6378		179.288
385		-101.906		162.343
386		-154.289		114.231
387		-175.267		54.6254
388		-169.746		2.87423
389		-152.517		-32.2749
390		-137.211		-55.6857
391		-126.657		-79.8008
392		-110.846		-113.286
393		-74.2574		-151.533
394		-8.56835		-175.49
395		76.8755		-160.683
396		153.857		-92.2486
397		185.603		22.2312
398		144.453		149.932
399		28.1474		243.061
400		-134.055		258.438
401		-289.629		177.448
402		-382.519		16.6536
403		-375.717		-176.425
404		-266.429		-340.841
405		-87.1336		-425.259
406		107.519		-406.347
407		261.515		-294.995
408		336.587		-128.904
409		321.963		43.6242
410		232.34		180.57
411		97.4645		256.681
412		-50.096		264.923
413		-183.074		211.326
414		-281.418		108.457
415		-330.237		-27.9503
416		-318.218		-178.23
417		-239.827		-316.678
418		-101.004		-412.54
419		75.6084		-436.773
420		251.026		-373.232
421		378.746		-229.026
422		420.182		-37.6848
423		360.431		148.619
424		216.657		276.198
425		33.9955		309.638
426		-130.371		245.403
427		-228.544		112.785
428		-239.276		-38.5622
429		-173.747		-158.888
430		-67.5783		-217.215
431		36.5226		-210.504
432		106.937		-159.789
433		133.718		-96.4112
434		127.544		-45.9672
435		109.094		-18.0369
436		95.502		-6.02032
437		91.4006		4.25557
438		88.8133		23.0266
439		74.9547		49.0706
440		42.6252		70.2596
441		-3.21927		71.3788
442		-46.5905		44.2501
443		-68.5425		-5.93953
444		-57.4579		-61.8364
445		-15.6555		-101.976
446		41.3492		-111.159
447		92.3798		-87.431
448		120.624		-42.0583
449		120.661		7.10134
450		98.9599		44.7688
451		68.1876		64.7443
452		39.1591		70.3911
453		15.3545		69.4713
454		-6.89366		67.0417
455		-33.0645		61.1276
456		-63.7		44.0251
457		-90.8836		8.49175
458		-100.644		-45.0716
459		-80.3366		-105.175
460		-26.8938		-152.225
461		49.0094		-166.907
462		125.714		-139.657
463		179.294		-76.0488
464		193.861		5.03368
465		168.088		79.6359
466		114.574		129.106
467		52.6085		147.153
468		-1.55275		140.064
469		-41.4904		120.41
470		-70.9109		98.222
471		-97.6703		74.9847
472		-125.461		44.0163
473		-148.502		-2.99602
474		-152.872		-67.3118
475		-124.224		-137.803
476		-57.7463		-192.791
477		35.4183		-208.919
478		129.502		-172.82
479		193.365		-89.4898
480		203.55		17.3827
481		154.808		113.823
482		62.8528		168.97
483		-42.0385		167.143
484		-127.41		112.99
485		-171		27.7006
486		-167.433		-61.2605
487		-126.771		-131.44
488		-66.7759		-172.251
489		-3.69937		-184.83
490		53.3808		-176.326
491		102.269		-152.953
492		142.774		-116.35
493		171.328		-65.302
494		179.337		-1.24115
495		156.962		66.6255
496		100.428		120.779
497		18.3242		141.008
498		-67.5948		113.967
499		-128.86		41.7036
500		-141.71		-55.9094
501		-98.1248		-147.069
502		-10.8029		-200.246
503		90.8961		-197.232
504		172.601		-140.816
505		208.906		-53.3266
506		193.184		33.3057
507		138.79		91.2169
508		71.455		107.548
509		16.9002		87.7378
510		-10.1411		50.214
511		-10.4105		15.7581
512		3.43292		-2.7485
513		15.8019		-5.1311
514		17.4309		-1.37427
515		9.97055		-3.78027
516		3.82312		-18.5411
517		10.8757		-41.4441
518		36.4601		-59.93
519		75.0984		-60.159
520		112.354		-35.0534
521		131.723		11.1209
522		122.807		64.0804
523		86.4265		105.975
524		34.1054		123.494
525		-17.5967		113.417
526		-54.7462		82.9357
527		-71.6609		44.9433
528		-71.7836		11.1345
529		-63.7921		-13.2708
530		-55.5039		-30.4947
531		-49.1862		-46.715
532		-40.8929		-66.4922
533		-24.036		-88.5735
534		5.07381		-105.662
535		43.1376		-108.404
536		79.8621		-91.3648
537		102.386		-57.5326
538		101.954		-18.5506
539		79.2756		9.86464
540		45.5137		15.2564
541		18.0366		-5.13481
542		12.7468		-42.1789
543		36.6201		-78.2161
544		84.0711		-94.5408
545		138.936		-79.5473
546		181.152		-33.7579
547		195.009		30.4951
548		175.204		94.3876
549		128.137		140.257
550		68.2866		158.022
551		11.7748		147.673
552		-29.6308		117.256
553		-51.4545		77.9879
554		-55.5967		39.3288
555		-46.853		6.43787
556		-29.3309		-19.1946
557		-4.92865		-37.0703
558		25.4738		-45.208
559		59.284		-39.8317
560		90.1629		-17.6839
561		108.597		20.3828
562		105.425		66.9571
563		76.7707		108.821
564		27.6432		131.31
565		-28.1738		124.59
566		-72.6175		88.8225
567		-90.5766		35.3456
568		-76.577		-17.2006
569		-37.6037		-50.4114
570		9.5742		-53.9544
571		45.5834		-29.9989
572		56.8763		7.96189
573		41.4586		41.4194
574		9.21315		55.3101
575		-23.258		44.5912
576		-40.6751		15.8483
577		-36.0404		-16.6565
578		-13.1917		-38.3267
579		16.0643		-41.1779
580		38.481		-26.9627
581		46.0178		-5.151
582		39.1786		12.8193
583		25.537		19.7235
584		14.6096		15.8046
585		12.1767		7.51733
586		17.3181		2.77701
587		23.7579		5.69344
588		24.5413		13.9943
589		17.086		20.7071
590		5.39435		19.0833
591		-2.12926		7.71753
592		1.84647		-7.45688
593		18.0432		-15.9058
594		38.5251		-8.77266
595		49.9021		14.7839
596		40.5624		45.0933
597		8.18079		65.3753
598		-36.8421		59.9024
599		-74.5182		22.9419
600		-84.0889		-36.3553
601		-54.4372		-96.2073
602		9.19583		-131.124
603		85.9306		-123.496
604		147.53		-72.2175
605		170.524		6.03021
606		146.408		83.6526
607		85.031		133.948
608		9.63995		142.166
609		-53.7779		110.605
610		-87.4892		55.6589
611		-88.0519		-1.19351
612		-64.9057		-43.498
613		-33.0158		-65.8716
614		-4.07184		-73.3345
615		18.8326		-75.0968
616		40.4081		-76.956
617		67.3085		-76.9891
618		101.171		-67.0477
619		135.088		-39.0017
620		155.906		8.22476
621		151.23		65.327
622		117.081		115.386
623		61.6145		141.538
624		2.43407		135.401
625		-41.3213		101.507
626		-57.9179		55.1339
627		-48.0949		14.6082
628		-23.5		-7.68644
629		0.535507		-10.6297
630		13.6801		-3.13509
631		15.7247		2.72176
632		15.2166		0.00897217
633		22.5237		-8.39536
634		41.6226		-11.7285
635		65.8126		1.13192
636		80.3704		33.0289
637		71.0682		74.2186
638		33.8005		105.584
639		-20.4959		108.266
640		-69.1432		74.6792
641		-88.2489		14.6419
642		-65.2251		-47.3775
643		-6.54765		-83.1787
644		63.8165		-74.6256
645		115.051		-23.167
646		124.049		50.0963
647		86.4837		114.114
648		18.6719		142.517
649		-50.6984		125.722
650		-94.5858		74.3896
651		-100.031		12.7551
652		-72.6906		-34.2775
653		-31.5705		-53.2133
654		2.60887		-46.8835
655		18.6588		-30.0556
656		19.5611		-18.8531
657		18.2862		-20.466
658		27.7571		-29.2128
659		51.2803		-31.1117
660		79.3908		-13.9896
661		95.1696		23.1943
662		84.9438		67.7514
663		47.8944		99.3854
664		-1.50114		101.784
665		-40.2234		72.9475
666		-49.2742		27.8986
667		-25.0022		-8.41481
668		17.5499		-14.5861
669		51.7763		14.7734
670		53.73		64.7511
671		15.8257		106.974
672		-47.675		114.379
673		-106.857		76.1396
674		-131.161		4.58636
675		-105.42		-69.9424
676		-38.3412		-113.928
677		41.2277		-107.504
678		98.4287		-54.4509
679		109.542		19.8859
680		73.1879		81.5565
681		9.88449		104.879
682		-49.4307		84.3249
683		-79.4573		35.4304
684		-72.4792		-15.1816
685		-40.0926		-44.6925
686		-4.46018		-45.5254
687		15.3655		-27.2639
688		14.0053		-8.62317
689		1.29295		-4.7344
690		-5.65175		-17.5284
691		5.33975		-34.9439
692		32.5871		-39.3089
693		60.6051		-19.6864
694		69.3092		19.4937
695		47.0096		59.12
696		-0.66832		75.5317
697		-51.6919		54.5339
698		-78.5193		1.1293
699		-63.261		-61.0881
700		-8.59807		-101.22
701		62.0177		-97.244
702		115.549		-48.2659
703		126.233		24.0995
704		89.0763		86.3296
705		22.5744		110.087
706		-40.9506		86.6512
707		-72.228		30.9044
708		-60.0071		-27.2417
709		-16.0347		-59.1968
710		32.5056		-52.8097
711		58.7137		-17.9831
712		50.9958		20.1302
713		19.0092		36.328
714		-12.6949		20.2602
715		-19.6068		-17.4429
716		7.79124		-51.3005
717		57.6376		-55.9178
718		102.63		-21.2581
719		115.1		40.469
720		82.8315		100.378
721		16.7503		128.047
722		-53.9736		107.96
723		-96.8753		48.1872
724		-93.1128		-23.5252
725		-47.168		-74.1682
726		15.8918		-82.5744
727		63.992		-49.9718
728		74.997		1.57332
729		47.841		41.7201
730		2.01133		48.3603
731		-33.9717		19.0273
732		-38.4465		-28.8027
733		-8.0446		-68.2712
734		41.4312		-78.3475
735		84.7626		-55.1092
736		101.871		-12.9716
737		88.8487		24.4553
738		59.358		38.3778
739		35.8983		25.5962
740		36.1689		-0.0167313
741		62.4362		-16.0059
742		99.9585		-4.7841
743		125.286		35.7054
744		119.646		90.1744
745		79.7987		134.013
746		20.2901		146.59
747		-34.1052		122.363
748		-61.4271		73.6996
749		-53.7992		23.9949
750		-20.8002		-4.88245
751		16.641		-3.78345
752		38.119		19.955
753		34.6223		47.9031
754		12.4496		61.6683
755		-11.6519		53.2793
756		-20.9494		29.0327
757		-8.58269		4.94934
758		18.7863		-3.17078
759		45.3667		10.8624
760		55.817		40.2152
761		44.2518		69.3741
762		17.427		83.4701
763		-9.61182		76.985
764		-22.6943		56.7282
765		-17.0114		37.4259
766		0.0829964		32.6232
767		13.5715		46.3083
768		9.90138		70.2066
769		-14.6176		88.3446
770		-51.058		86.2565
771		-82.3949		59.5231
772		-92.7399		16.7405
773		-76.0531		-24.7724
774		-39.4408		-48.0795
775		0.729004		-45.4172
776		27.5913		-21.8158
777		32.4533		8.28287
778		18.6024		29.2715
779		-1.61384		32.7036
780		-14.4469		21.0722
781		-12.567		5.19663
782		1.39738		-2.90318
783		17.37		2.73351
784		24.5586		18.854
785		18.1953		35.5822
786		2.24765		42.9231
787		-13.3831		37.0818
788		-19.289		22.7352
789		-12.5694		9.94231
790		1.2921		7.67064
791		11.8436		17.9683
792		10.2858		34.4132
793		-4.7696		45.8621
794		-25.984		43.2913
795		-41.3447		25.6006
796		-41.2686		0.801285
797		-24.5453		-18.276
798		0.488682		-21.3484
799		20.3896		-6.8274
800		24.1992		16.9179
801		9.82049		36.0473
802		-14.5561		38.9965
803		-34.8827		23.0675
804		-39.0686		-3.93691
805		-23.7346		-28.0042
806		3.93892		-36.6955
807		30.3068		-25.9879
808		42.9223		-2.29912
809		37.3718		21.3929
810		19.4062		33.0287
811		1.24751		28.2026
812		-5.68189		12.3099
813		2.67203		-3.02669
814		20.9237		-7.04047
815		37.7901		3.80479
816		43.0469		23.8905
817		33.726		42.0441
818		15.8573		48.4586
819		0.732399		40.768
820		-2.07588		25.6203
821		9.23706		14.7625
822		27.2407		17.9117
823		39.3488		36.6182
824		35.1417		62.7912
825		12.6886		82.8587
826		-19.8345		85.2508
827		-48.2415		66.945
828		-59.8603		35.3282
829		-50.2308		4.32127
830		-25.2225		-13.0017
831		2.52571		-11.0947
832		20.6715		5.80975
833		23.611		26.9797
834		14.6338		41.8633
835		2.74327		46.1156
836		-3.72876		43.4079
837		-2.69862		42.0658
838		0.367989		48.7374
839		-3.73613		63.1147
840		-21.3663		77.1292
841		-50.758		79.3382
842		-81.5161		62.0344
843		-99.52		26.8239
844		-94.6388		-14.8471
845		-66.8419		-46.8823
846		-27.0376		-56.7561
847		8.10292		-42.2001
848		24.6338		-12.5241
849		18.474		16.2975
850		-2.78661		30.1228
851		-24.4239		24.0181
852		-32.8991		4.42361
853		-23.2669		-15.0331
854		-1.52094		-21.6149
855		19.3602		-10.7891
856		27.2945		11.3973
857		18.2954		32.183
858		-1.19882		39.8916
859		-18.2108		31.082
860		-21.0634		12.8537
861		-6.60793		-1.0887
862		17.3894		1.60631
863		36.1585		24.5126
864		35.9777		59.805
865		11.8409		91.9795
866		-29.5648		105.855
867		-73.1989		94.3885
868		-103.384		62.0137
869		-111.545		21.7871
870		-99.7272		-11.8237
871		-78.1774		-30.3105
872		-58.7135		-34.5244
873		-47.9419		-32.442
874		-44.2952		-32.9929
875		-40.4278		-39.9038
876		-29.2234		-49.3693
877		-9.49247		-52.9202
878		12.3303		-43.612
879		25.6856		-21.5636
880		22.5331		4.80032
881		3.03577		22.8603
882		-23.3923		23.025
