Magnitude - FFT Frequency Resolution: 3.90625
 
0	0.0269965
1	0.0269646
2	0.0268689
3	0.0267097
4	0.0264875
5	0.026203
6	0.0258572
7	0.025451
8	0.024986
9	0.0244638
10	0.0238861
11	0.0232552
12	0.0225735
13	0.0218439
14	0.0210694
15	0.0202536
16	0.0194003
17	0.0185139
18	0.0175992
19	0.0166615
20	0.0157067
21	0.0147414
22	0.0137732
23	0.0128103
24	0.0118624
25	0.0109406
26	0.0100578
27	0.00922907
28	0.00847179
29	0.00780564
30	0.00725152
31	0.00682918
32	0.00655338
33	0.00642935
34	0.00644999
35	0.00659663
36	0.00684317
37	0.00716127
38	0.00752426
39	0.00790926
40	0.0082976
41	0.00867461
42	0.00902891
43	0.00935184
44	0.00963692
45	0.00987936
46	0.0100757
47	0.0102238
48	0.0103221
49	0.0103699
50	0.0103674
51	0.0103148
52	0.0102131
53	0.0100633
54	0.00986711
55	0.00962598
56	0.00934176
57	0.00901637
58	0.00865181
59	0.00825017
60	0.00781362
61	0.00734443
62	0.00684501
63	0.00631801
64	0.00576646
65	0.00519401
66	0.00460541
67	0.00400736
68	0.00341026
69	0.00283197
70	0.00230609
71	0.00189791
72	0.00171403
73	0.00183765
74	0.00222584
75	0.00277253
76	0.00340164
77	0.00407213
78	0.00476154
79	0.00545622
80	0.00614668
81	0.00682563
82	0.00748695
83	0.00812522
84	0.00873553
85	0.00931334
86	0.00985443
87	0.0103549
88	0.0108113
89	0.0112203
90	0.0115791
91	0.0118853
92	0.0121369
93	0.0123324
94	0.0124708
95	0.0125516
96	0.0125745
97	0.0125402
98	0.0124495
99	0.0123039
100	0.0121054
101	0.0118562
102	0.0115593
103	0.0112177
104	0.0108352
105	0.0104155
106	0.00996293
107	0.00948188
108	0.008977
109	0.0084531
110	0.00791511
111	0.00736809
112	0.00681716
113	0.00626754
114	0.00572455
115	0.00519364
116	0.00468055
117	0.00419137
118	0.00373281
119	0.00331246
120	0.00293901
121	0.00262227
122	0.0023725
123	0.00219838
124	0.00210382
125	0.0020851
126	0.00213081
127	0.00222537
128	0.00235319
129	0.00250142
130	0.00266074
131	0.00282496
132	0.0029904
133	0.0031552
134	0.0033188
135	0.00348152
136	0.00364425
137	0.0038083
138	0.00397515
139	0.00414638
140	0.00432355
141	0.00450815
142	0.00470152
143	0.00490487
144	0.00511916
145	0.00534519
146	0.00558351
147	0.00583444
148	0.00609808
149	0.00637428
150	0.00666266
151	0.00696259
152	0.00727319
153	0.00759337
154	0.00792177
155	0.00825682
156	0.00859672
157	0.00893947
158	0.00928289
159	0.00962463
160	0.00996222
161	0.010293
162	0.0106145
163	0.0109238
164	0.0112182
165	0.0114952
166	0.0117521
167	0.0119865
168	0.0121961
169	0.0123788
170	0.0125328
171	0.0126566
172	0.012749
173	0.0128094
174	0.0128373
175	0.012833
176	0.0127971
177	0.0127311
178	0.0126368
179	0.0125169
180	0.0123746
181	0.0122141
182	0.01204
183	0.0118578
184	0.0116737
185	0.0114944
186	0.011327
187	0.0111787
188	0.0110566
189	0.0109676
190	0.0109172
191	0.01091
192	0.0109488
193	0.0110345
194	0.011166
195	0.0113401
196	0.0115523
197	0.0117964
198	0.0120651
199	0.0123505
200	0.0126447
201	0.0129393
202	0.0132263
203	0.0134983
204	0.0137479
205	0.0139687
206	0.0141548
207	0.0143011
208	0.0144028
209	0.0144564
210	0.0144587
211	0.0144073
212	0.0143007
213	0.0141379
214	0.0139187
215	0.0136435
216	0.0133136
217	0.0129308
218	0.0124974
219	0.0120167
220	0.0114922
221	0.0109285
222	0.0103305
223	0.00970383
224	0.00905502
225	0.00839138
226	0.00772133
227	0.00705468
228	0.00640314
229	0.00578091
230	0.00520554
231	0.0046986
232	0.00428541
233	0.00399239
234	0.00384058
235	0.00383701
236	0.00397001
237	0.00421334
238	0.00453552
239	0.0049075
240	0.00530591
241	0.00571323
242	0.00611681
243	0.00650765
244	0.00687945
245	0.00722792
246	0.00755023
247	0.00784467
248	0.00811042
249	0.0083473
250	0.00855566
251	0.00873627
252	0.00889021
253	0.00901881
254	0.00912356
255	0.00920609
256	0.00926809
257	0.00931131
258	0.00933747
259	0.00934832
260	0.00934552
261	0.00933069
262	0.00930539
263	0.00927106
264	0.00922905
265	0.0091806
266	0.00912681
267	0.00906862
268	0.00900684
269	0.00894206
270	0.00887469
271	0.00880491
272	0.00873269
273	0.00865775
274	0.00857955
275	0.00849733
276	0.0084101
277	0.00831667
278	0.00821565
279	0.00810553
280	0.00798469
281	0.00785147
282	0.00770422
283	0.00754131
284	0.00736127
285	0.00716275
286	0.00694464
287	0.0067061
288	0.00644656
289	0.00616586
290	0.0058642
291	0.00554226
292	0.00520122
293	0.00484288
294	0.00446972
295	0.00408516
296	0.00369384
297	0.00330212
298	0.002919
299	0.00255753
300	0.00223693
301	0.00198453
302	0.00183377
303	0.00181214
304	0.00192276
305	0.00214145
306	0.00243374
307	0.00276981
308	0.00312837
309	0.0034951
310	0.00386039
311	0.00421767
312	0.00456242
313	0.00489155
314	0.00520312
315	0.00549604
316	0.00577004
317	0.00602554
318	0.00626359
319	0.0064858
320	0.00669433
321	0.00689175
322	0.007081
323	0.00726523
324	0.00744773
325	0.00763172
326	0.00782022
327	0.00801591
328	0.00822095
329	0.00843687
330	0.00866448
331	0.00890379
332	0.00915402
333	0.00941364
334	0.0096804
335	0.00995143
336	0.0102234
337	0.0104925
338	0.0107547
339	0.0110059
340	0.011242
341	0.0114587
342	0.0116521
343	0.0118185
344	0.0119546
345	0.0120574
346	0.0121244
347	0.0121538
348	0.0121441
349	0.0120946
350	0.0120055
351	0.0118773
352	0.0117118
353	0.0115112
354	0.0112789
355	0.0110191
356	0.010737
357	0.0104388
358	0.0101317
359	0.0098239
360	0.00952431
361	0.00924259
362	0.00898864
363	0.00877222
364	0.00860221
365	0.00848594
366	0.00842844
367	0.00843184
368	0.00849517
369	0.00861443
370	0.0087831
371	0.00899284
372	0.00923425
373	0.00949757
374	0.00977327
375	0.0100524
376	0.0103269
377	0.0105897
378	0.0108347
379	0.0110567
380	0.0112517
381	0.0114165
382	0.0115486
383	0.0116464
384	0.0117089
385	0.0117356
386	0.0117265
387	0.0116821
388	0.0116031
389	0.0114904
390	0.0113452
391	0.0111688
392	0.0109622
393	0.0107267
394	0.0104634
395	0.0101734
396	0.00985757
397	0.00951671
398	0.00915154
399	0.00876272
400	0.00835085
401	0.00791655
402	0.00746053
403	0.0069836
404	0.00648676
405	0.00597129
406	0.00543877
407	0.00489119
408	0.00433106
409	0.00376154
410	0.00318679
411	0.00261263
412	0.00204822
413	0.0015114
414	0.00104715
415	0.000785248
416	0.000900063
417	0.00127408
418	0.00172744
419	0.00219177
420	0.00264201
421	0.00306603
422	0.00345631
423	0.00380745
424	0.00411535
425	0.00437685
426	0.00458971
427	0.00475258
428	0.00486507
429	0.00492792
430	0.00494309
431	0.004914
432	0.00484578
433	0.00474557
434	0.00462287
435	0.00448993
436	0.00436194
437	0.00425687
438	0.0041944
439	0.00419384
440	0.00427092
441	0.0044347
442	0.00468596
443	0.005018
444	0.00541901
445	0.00587477
446	0.00637075
447	0.00689321
448	0.00742972
449	0.0079693
450	0.00850235
451	0.00902052
452	0.00951666
453	0.0099847
454	0.0104196
455	0.0108173
456	0.0111748
457	0.0114899
458	0.0117614
459	0.0119891
460	0.0121735
461	0.0123161
462	0.0124193
463	0.0124861
464	0.0125204
465	0.0125265
466	0.0125095
467	0.0124745
468	0.0124271
469	0.0123728
470	0.0123169
471	0.0122645
472	0.0122198
473	0.0121863
474	0.0121667
475	0.0121623
476	0.0121735
477	0.0121995
478	0.0122384
479	0.0122875
480	0.0123432
481	0.0124015
482	0.0124581
483	0.0125085
484	0.0125483
485	0.0125734
486	0.01258
487	0.0125646
488	0.0125245
489	0.0124574
490	0.0123616
491	0.012236
492	0.0120803
493	0.0118944
494	0.0116793
495	0.0114361
496	0.0111667
497	0.0108736
498	0.0105596
499	0.0102282
500	0.00988346
501	0.00952989
502	0.00917265
503	0.00881747
504	0.00847072
505	0.00813935
506	0.00783087
507	0.00755312
508	0.00731407
509	0.00712132
510	0.0069816
511	0.00690005
512	0.00687965
513	0.00692084
514	0.00702137
515	0.00717659
516	0.00737996
517	0.00762369
518	0.00789936
519	0.00819845
520	0.00851267
521	0.00883421
522	0.00915586
523	0.00947107
524	0.00977394
525	0.0100592
526	0.0103224
527	0.0105594
528	0.0107669
529	0.0109423
530	0.0110835
531	0.011189
532	0.0112582
533	0.0112909
534	0.0112878
535	0.0112502
536	0.0111801
537	0.0110802
538	0.010954
539	0.0108054
540	0.0106391
541	0.0104602
542	0.0102741
543	0.0100867
544	0.00990364
545	0.0097305
546	0.00957237
547	0.00943359
548	0.00931747
549	0.00922606
550	0.00915999
551	0.00911843
552	0.0090991
553	0.00909847
554	0.009112
555	0.0091344
556	0.00915998
557	0.00918292
558	0.00919754
559	0.00919851
560	0.00918102
561	0.00914087
562	0.00907459
563	0.00897943
564	0.00885341
565	0.00869531
566	0.00850463
567	0.00828156
568	0.00802697
569	0.00774235
570	0.00742974
571	0.00709172
572	0.00673137
573	0.00635226
574	0.00595841
575	0.00555437
576	0.00514528
577	0.004737
578	0.00433637
579	0.00395152
580	0.00359236
581	0.00327099
582	0.00300191
583	0.00280111
584	0.00268355
585	0.00265874
586	0.00272691
587	0.00287874
588	0.00309914
589	0.0033719
590	0.00368277
591	0.00402045
592	0.00437641
593	0.00474429
594	0.00511931
595	0.00549775
596	0.0058766
597	0.0062533
598	0.00662557
599	0.00699129
600	0.00734846
601	0.00769514
602	0.00802946
603	0.00834965
604	0.008654
605	0.00894095
606	0.00920912
607	0.00945728
608	0.00968446
609	0.00988994
610	0.0100733
611	0.0102343
612	0.0103731
613	0.0104901
614	0.0105862
615	0.0106622
616	0.0107194
617	0.0107594
618	0.0107836
619	0.0107938
620	0.0107918
621	0.0107794
622	0.0107584
623	0.0107302
624	0.0106965
625	0.0106583
626	0.0106167
627	0.0105724
628	0.0105257
629	0.0104769
630	0.0104257
631	0.0103719
632	0.0103149
633	0.010254
634	0.0101884
635	0.0101173
636	0.01004
637	0.00995561
638	0.0098636
639	0.00976348
640	0.00965492
641	0.00953781
642	0.00941223
643	0.00927847
644	0.00913704
645	0.00898861
646	0.00883405
647	0.0086744
648	0.00851081
649	0.00834458
650	0.00817706
651	0.00800969
652	0.00784391
653	0.00768119
654	0.00752296
655	0.00737061
656	0.00722545
657	0.00708869
658	0.00696141
659	0.00684458
660	0.00673897
661	0.00664519
662	0.00656367
663	0.00649463
664	0.00643807
665	0.00639382
666	0.00636147
667	0.00634045
668	0.00633001
669	0.00632922
670	0.00633705
671	0.00635236
672	0.00637396
673	0.00640059
674	0.00643102
675	0.00646403
676	0.00649846
677	0.00653323
678	0.00656738
679	0.00660007
680	0.00663059
681	0.0066584
682	0.0066831
683	0.00670447
684	0.00672243
685	0.00673706
686	0.00674855
687	0.00675722
688	0.00676347
689	0.00676778
690	0.00677064
691	0.00677255
692	0.00677399
693	0.00677536
694	0.00677698
695	0.00677906
696	0.00678165
697	0.00678468
698	0.00678791
699	0.00679094
700	0.00679323
701	0.00679411
702	0.00679279
703	0.00678837
704	0.00677992
705	0.00676642
706	0.00674689
707	0.00672032
708	0.00668574
709	0.00664226
710	0.00658903
711	0.00652531
712	0.00645045
713	0.00636392
714	0.00626527
715	0.0061542
716	0.00603052
717	0.00589413
718	0.00574507
719	0.00558347
720	0.00540957
721	0.00522369
722	0.00502626
723	0.00481778
724	0.00459884
725	0.00437007
726	0.00413221
727	0.00388604
728	0.00363241
729	0.00337222
730	0.00310645
731	0.00283616
732	0.00256249
733	0.00228673
734	0.00201036
735	0.00173522
736	0.00146376
737	0.00119973
738	0.000949721
739	0.0007273
740	0.000562781
741	0.000509484
742	0.000591568
743	0.000760629
744	0.000966724
745	0.00118567
746	0.00140683
747	0.00162501
748	0.00183734
749	0.00204205
750	0.00223799
751	0.00242433
752	0.0026005
753	0.00276613
754	0.00292096
755	0.0030649
756	0.00319792
757	0.00332011
758	0.00343163
759	0.00353273
760	0.0036237
761	0.00370487
762	0.00377663
763	0.00383936
764	0.00389347
765	0.00393935
766	0.00397736
767	0.00400785
768	0.00403112
769	0.00404742
770	0.00405694
771	0.00405981
772	0.00405612
773	0.00404587
774	0.00402903
775	0.00400552
776	0.00397523
777	0.00393801
778	0.00389372
779	0.00384222
780	0.00378338
781	0.00371712
782	0.0036434
783	0.00356226
784	0.00347378
785	0.00337819
786	0.00327576
787	0.00316692
788	0.00305217
789	0.00293217
790	0.00280767
791	0.00267958
792	0.0025489
793	0.00241678
794	0.00228445
795	0.00215327
796	0.00202469
797	0.00190023
798	0.00178145
799	0.00166994
800	0.00156725
801	0.00147486
802	0.00139406
803	0.00132596
804	0.00127139
805	0.00123087
806	0.00120469
807	0.00119296
808	0.00119579
809	0.00121338
810	0.00124619
811	0.00129493
812	0.00136053
813	0.00144405
814	0.00154649
815	0.00166869
816	0.00181119
817	0.00197419
818	0.00215749
819	0.00236055
820	0.00258251
821	0.0028222
822	0.00307821
823	0.00334893
824	0.00363256
825	0.00392716
826	0.00423064
827	0.00454084
828	0.0048555
829	0.00517234
830	0.00548903
831	0.00580324
832	0.00611267
833	0.00641506
834	0.00670822
835	0.00699007
836	0.0072586
837	0.00751199
838	0.00774854
839	0.00796675
840	0.00816528
841	0.00834302
842	0.00849906
843	0.00863273
844	0.00874355
845	0.00883133
846	0.00889606
847	0.00893798
848	0.00895756
849	0.00895548
850	0.00893261
851	0.00889003
852	0.00882898
853	0.00875086
854	0.00865719
855	0.00854964
856	0.00842995
857	0.00829992
858	0.00816144
859	0.00801639
860	0.00786667
861	0.00771419
862	0.00756081
863	0.00740836
864	0.0072586
865	0.00711324
866	0.00697388
867	0.00684205
868	0.00671916
869	0.00660648
870	0.00650516
871	0.00641619
872	0.00634038
873	0.00627831
874	0.00623038
875	0.00619671
876	0.00617717
877	0.00617137
878	0.00617863
879	0.00619799
880	0.00622824
881	0.00626794
882	0.00631543
883	0.0063689
884	0.00642638
885	0.00648584
886	0.00654517
887	0.00660229
888	0.00665512
889	0.00670167
890	0.00674005
891	0.0067685
892	0.00678542
893	0.0067894
894	0.00677924
895	0.00675395
896	0.00671276
897	0.00665519
898	0.00658096
899	0.00649006
900	0.00638273
901	0.00625945
902	0.00612094
903	0.00596811
904	0.0058021
905	0.00562422
906	0.00543593
907	0.00523879
908	0.00503448
909	0.00482471
910	0.00461119
911	0.00439561
912	0.00417955
913	0.00396448
914	0.00375168
915	0.0035422
916	0.00333685
917	0.00313615
918	0.00294032
919	0.00274932
920	0.00256281
921	0.00238029
922	0.00220111
923	0.0020246
924	0.00185022
925	0.00167773
926	0.00150747
927	0.00134073
928	0.00118042
929	0.00103202
930	0.000905043
931	0.000814242
932	0.000777482
933	0.000806821
934	0.000899308
935	0.0010404
936	0.00121418
937	0.00140834
938	0.00161434
939	0.00182611
940	0.00203915
941	0.00224984
942	0.00245517
943	0.00265251
944	0.00283952
945	0.00301414
946	0.00317452
947	0.00331909
948	0.00344648
949	0.00355562
950	0.00364569
951	0.00371618
952	0.00376688
953	0.00379791
954	0.00380973
955	0.00380318
956	0.00377948
957	0.00374023
958	0.00368749
959	0.00362375
960	0.00355198
961	0.0034756
962	0.00339851
963	0.00332503
964	0.00325978
965	0.00320755
966	0.003173
967	0.00316037
968	0.00317308
969	0.00321345
970	0.00328248
971	0.0033798
972	0.0035039
973	0.00365231
974	0.00382201
975	0.00400969
976	0.00421197
977	0.0044256
978	0.00464751
979	0.00487489
980	0.00510515
981	0.00533596
982	0.00556517
983	0.00579083
984	0.00601113
985	0.00622438
986	0.00642901
987	0.00662353
988	0.00680652
989	0.00697666
990	0.00713267
991	0.00727336
992	0.00739764
993	0.00750448
994	0.00759297
995	0.00766229
996	0.00771178
997	0.0077409
998	0.00774927
999	0.00773666
1000	0.00770302
1001	0.00764847
1002	0.00757332
1003	0.00747806
1004	0.00736332
1005	0.00722994
1006	0.00707886
1007	0.00691119
1008	0.00672812
1009	0.00653095
1010	0.006321
1011	0.00609964
1012	0.00586821
1013	0.005628
1014	0.00538023
1015	0.005126
1016	0.00486627
1017	0.00460184
1018	0.00433335
1019	0.00406123
1020	0.00378579
1021	0.00350715
1022	0.00322534
1023	0.00294036
1024	0.00265225
1025	0.00236122
1026	0.00206789
1027	0.00177371
1028	0.00148175
1029	0.00119858
1030	0.000939095
1031	0.000738019
1032	0.000661584
1033	0.000756657
1034	0.000979078
1035	0.00126578
1036	0.00158292
1037	0.00191476
1038	0.00225303
1039	0.00259249
1040	0.00292925
1041	0.00326007
1042	0.00358208
1043	0.00389262
1044	0.00418923
1045	0.00446964
1046	0.00473176
1047	0.00497374
1048	0.00519398
1049	0.00539116
1050	0.00556427
1051	0.00571266
1052	0.00583601
1053	0.0059344
1054	0.0060083
1055	0.00605857
1056	0.00608647
1057	0.00609362
1058	0.00608201
1059	0.00605395
1060	0.00601198
1061	0.00595889
1062	0.00589753
1063	0.0058308
1064	0.00576148
1065	0.00569214
1066	0.005625
1067	0.00556182
1068	0.00550378
1069	0.00545144
1070	0.00540471
1071	0.00536281
1072	0.0053244
1073	0.00528761
1074	0.00525021
1075	0.00520973
1076	0.00516358
1077	0.00510924
1078	0.00504435
1079	0.0049668
1080	0.00487488
1081	0.0047673
1082	0.00464328
1083	0.00450258
1084	0.00434556
1085	0.00417322
1086	0.00398724
1087	0.00379004
1088	0.00358484
1089	0.00337576
1090	0.00316788
1091	0.00296734
1092	0.00278132
1093	0.00261787
1094	0.00248533
1095	0.00239137
1096	0.0023415
1097	0.00233765
1098	0.0023775
1099	0.00245492
1100	0.00256139
1101	0.00268758
1102	0.00282449
1103	0.00296414
1104	0.00309981
1105	0.00322598
1106	0.00333826
1107	0.00343321
1108	0.00350828
1109	0.00356164
1110	0.00359218
1111	0.00359938
1112	0.00358331
1113	0.00354461
1114	0.00348443
1115	0.00340449
1116	0.00330702
1117	0.00319482
1118	0.00307126
1119	0.00294034
1120	0.00280667
1121	0.00267549
1122	0.00255261
1123	0.00244416
1124	0.00235628
1125	0.00229441
1126	0.00226261
1127	0.00226279
1128	0.00229434
1129	0.00235429
1130	0.00243789
1131	0.00253946
1132	0.00265309
1133	0.0027732
1134	0.00289478
1135	0.00301358
1136	0.00312605
1137	0.00322933
1138	0.0033212
1139	0.00339999
1140	0.00346455
1141	0.0035142
1142	0.00354867
1143	0.00356806
1144	0.00357284
1145	0.00356378
1146	0.00354194
1147	0.00350864
1148	0.00346542
1149	0.003414
1150	0.00335623
1151	0.00329408
1152	0.00322955
1153	0.0031646
1154	0.00310113
1155	0.00304086
1156	0.00298529
1157	0.00293562
1158	0.00289271
1159	0.00285704
1160	0.00282873
1161	0.00280752
1162	0.00279286
1163	0.00278398
1164	0.00277993
1165	0.00277972
1166	0.00278238
1167	0.002787
1168	0.00279284
1169	0.0027993
1170	0.00280599
1171	0.0028127
1172	0.00281939
1173	0.00282618
1174	0.0028333
1175	0.00284107
1176	0.00284984
1177	0.00285996
1178	0.00287173
1179	0.00288542
1180	0.0029012
1181	0.00291918
1182	0.0029394
1183	0.00296186
1184	0.00298658
1185	0.00301362
1186	0.00304313
1187	0.00307543
1188	0.003111
1189	0.00315056
1190	0.00319505
1191	0.00324564
1192	0.00330369
1193	0.00337068
1194	0.00344813
1195	0.00353751
1196	0.00364011
1197	0.00375692
1198	0.00388853
1199	0.00403508
1200	0.0041962
1201	0.00437101
1202	0.00455812
1203	0.00475573
1204	0.00496164
1205	0.00517334
1206	0.00538808
1207	0.00560294
1208	0.00581491
1209	0.00602092
1210	0.00621792
1211	0.00640291
1212	0.006573
1213	0.00672545
1214	0.00685768
1215	0.00696736
1216	0.00705236
1217	0.00711085
1218	0.00714129
1219	0.00714245
1220	0.00711344
1221	0.00705373
1222	0.00696315
1223	0.00684191
1224	0.00669063
1225	0.00651032
1226	0.00630242
1227	0.00606881
1228	0.00581184
1229	0.00553434
1230	0.00523971
1231	0.00493197
1232	0.00461588
1233	0.00429706
1234	0.00398218
1235	0.00367922
1236	0.0033976
1237	0.00314823
1238	0.00294305
1239	0.00279381
1240	0.00270981
1241	0.00269521
1242	0.00274745
1243	0.0028578
1244	0.00301381
1245	0.00320216
1246	0.00341055
1247	0.00362861
1248	0.003848
1249	0.00406221
1250	0.00426625
1251	0.00445634
1252	0.00462972
1253	0.00478445
1254	0.00491924
1255	0.00503341
1256	0.00512677
1257	0.00519957
1258	0.00525245
1259	0.00528642
1260	0.00530282
1261	0.0053033
1262	0.00528981
1263	0.00526453
1264	0.00522995
1265	0.00518876
1266	0.00514387
1267	0.00509837
1268	0.00505548
1269	0.00501852
1270	0.00499079
1271	0.00497547
1272	0.00497554
1273	0.00499363
1274	0.00503186
1275	0.00509179
1276	0.00517429
1277	0.00527952
1278	0.00540695
1279	0.0055554
1280	0.00572311
1281	0.00590787
1282	0.00610708
1283	0.00631791
1284	0.00653732
1285	0.00676221
1286	0.00698939
1287	0.0072157
1288	0.00743803
1289	0.00765333
1290	0.00785866
1291	0.00805118
1292	0.00822823
1293	0.0083873
1294	0.00852608
1295	0.00864245
1296	0.00873455
1297	0.00880075
1298	0.00883969
1299	0.00885033
1300	0.0088319
1301	0.00878397
1302	0.00870646
1303	0.00859961
1304	0.00846407
1305	0.00830084
1306	0.0081113
1307	0.00789725
1308	0.00766089
1309	0.00740485
1310	0.00713219
1311	0.00684644
1312	0.00655161
1313	0.00625218
1314	0.00595316
1315	0.00566006
1316	0.00537885
1317	0.00511586
1318	0.0048776
1319	0.00467045
1320	0.00450014
1321	0.00437125
1322	0.00428653
1323	0.00424648
1324	0.00424917
1325	0.00429043
1326	0.00436445
1327	0.0044644
1328	0.00458316
1329	0.00471384
1330	0.00485011
1331	0.00498639
1332	0.00511794
1333	0.00524079
1334	0.00535174
1335	0.00544823
1336	0.00552831
1337	0.00559054
1338	0.00563395
1339	0.00565794
