Compute Correlation 
 
0		-149.167		88.4179
1		-249.545		85.211
2		-335.816		46.597
3		-398.787		-17.1053
4		-434.377		-95.0065
5		-442.269		-177.472
6		-424.246		-256.726
7		-382.965		-326.452
8		-321.583		-380.945
9		-244.255		-414.488
10		-157.132		-421.513
11		-69.1547		-397.755
12		8.03663		-342.11
13		61.5129		-258.519
14		79.7047		-156.975
15		55.6412		-52.9192
16		-10.2628		35.2251
17		-108.949		89.9585
18		-223.682		99.0249
19		-333.24		58.8432
20		-416.576		-24.0795
21		-457.672		-134.287
22		-449.188		-250.799
23		-393.923		-351.853
24		-303.773		-419.616
25		-196.663		-443.652
26		-92.4303		-422.38
27		-8.82528		-362.471
28		41.4686		-276.671
29		52.3553		-180.864
30		24.4408		-91.1594
31		-35.8839		-21.5076
32		-117.932		17.9437
33		-208.43		21.823
34		-293.288		-10.0414
35		-359.369		-72.6764
36		-396.237		-156.527
37		-397.731		-248.607
38		-363.15		-334.254
39		-297.723		-399.362
40		-212.158		-432.79
41		-121.173		-428.524
42		-41.1388		-387.146
43		12.8314		-316.248
44		29.8872		-229.55
45		5.96225		-144.719
46		-54.762		-80.113
47		-139.944		-50.9366
48		-230.991		-65.5582
49		-306.703		-122.888
50		-348.061		-211.686
51		-343.143		-312.337
52		-290.81		-401.077
53		-201.935		-455.845
54		-97.4303		-462.334
55		-3.21412		-418.451
56		56.7142		-335.64
57		67.1883		-236.338
58		26.6287		-147.988
59		-52.013		-95.2007
60		-144.664		-92.4028
61		-223.065		-139.296
62		-263.203		-220.684
63		-252.639		-310.871
64		-194.414		-381.347
65		-106.248		-409.437
66		-15.2537		-385.195
67		50.2031		-314.436
68		68.968		-216.979
69		33.2863		-120.721
70		-49.1102		-53.4296
71		-157.531		-34.8024
72		-264.538		-71.1664
73		-343.825		-154.278
74		-377.326		-264.367
75		-359.502		-376.251
76		-297.727		-466.498
77		-208.983		-519.402
78		-114.195		-530.106
79		-32.1767		-504.213
80		24.9068		-454.425
81		53.3118		-395.653
82		56.5457		-340.423
83		42.1046		-296.096
84		17.634		-264.624
85		-11.8965		-244.528
86		-44.9615		-233.936
87		-82.0635		-233.16
88		-122.954		-245.542
89		-163.915		-276.089
90		-196.56		-328.362
91		-209.008		-400.944
92		-189.365		-485.096
93		-130.42		-564.893
94		-33.8711		-620.31
95		87.671		-632.611
96		212.005		-590.466
97		312.05		-494.786
98		362.837		-360.486
99		348.819		-214.237
100		269.241		-88.4817
101		139.776		-13.1884
102		-10.3956		-7.61063
103		-145.497		-74.4874
104		-232.308		-198.513
105		-249.029		-349.742
106		-191.279		-491.16
107		-73.4235		-588.375
108		75.2795		-618.695
109		218.66		-576.944
110		323.444		-476.318
111		367.984		-344.066
112		347.361		-213.362
113		273.427		-113.953
114		170.024		-64.4431
115		65.1254		-68.5224
116		-17.4002		-115.996
117		-63.7433		-187.872
118		-72.1316		-263.397
119		-50.6482		-326.465
120		-12.2191		-369.236
121		31.0009		-392.108
122		71.6253		-400.611
123		108.085		-400.975
124		142.75		-396.458
125		178.371		-385.98
126		214.719		-365.465
127		247.069		-331.07
128		267.247		-282.648
129		266.802		-225.768
130		240.919		-171.275
131		191.392		-132.432
132		127.395		-120.696
133		63.6518		-141.678
134		16.5925		-192.731
135		-0.239243		-262.984
136		19.8927		-335.787
137		74.7887		-392.799
138		153.487		-418.584
139		238.618		-404.544
140		310.341		-351.281
141		350.966		-268.886
142		349.294		-175.058
143		303.72		-91.3136
144		223.29		-37.9907
145		126.222		-29.0822
146		35.923		-68.1813
147		-24.7759		-146.797
148		-39.7815		-245.839
149		-4.52341		-340.245
150		72.2506		-405.682
151		170.514		-425.448
152		264.476		-395.372
153		329.995		-325.046
154		351.538		-234.853
155		326.413		-149.711
156		264.901		-91.6097
157		186.358		-73.4622
158		112.796		-96.2265
159		62.2791		-150.038
160		44.3743		-218.577
161		58.967		-284.791
162		98.3685		-335.784
163		151.396		-365.284
164		207.531		-373.247
165		259.529		-363.398
166		303.756		-340.247
167		338.694		-307.107
168		362.858		-265.921
169		373.513		-218.699
170		367.091		-169.482
171		341.21		-125.475
172		297.343		-96.3422
173		242.693		-91.5642
174		190.062		-116.684
175		155.246		-169.949
176		152.55		-240.861
177		189.805		-311.588
178		264.7		-361.157
179		363.865		-371.339
180		465.371		-332.44
181		544.143		-247.087
182		578.836		-130.638
183		558.135		-7.85423
184		484.535		93.3914
185		374.337		149.631
186		253.691		148.365
187		151.742		91.714
188		92.7903		-3.98692
189		89.7606		-112.58
190		140.856		-205.212
191		230.362		-258.115
192		333.296		-258.781
193		422.448		-208.815
194		475.707		-122.754
195		481.563		-23.4273
196		441.35		64.6165
197		367.848		121.625
198		280.942		137.28
199		201.856		112.381
200		147.652		57.437
201		127.449		-11.0876
202		141.133		-75.5914
203		180.568		-121.846
204		232.691		-142.088
205		283.474		-136.087
206		321.678		-110.149
207		341.446		-74.4949
208		343.161		-39.8206
209		332.397		-14.0287
210		317.346		-0.0776978
211		305.51		4.37779
212		300.777		5.40231
213		301.96		9.74529
214		303.444		21.4393
215		297.873		39.3902
216		279.957		57.0934
217		249.867		64.8794
218		214.671		54.0631
219		186.844		21.4557
220		180.056		-27.6884
221		203.613		-79.8129
222		257.699		-116.703
223		331.521		-121.615
224		405.447		-85.7357
225		456.765		-12.4674
226		467.168		82.3109
227		429.307		174.398
228		349.954		238.566
229		248.55		256.498
230		151.561		222.63
231		84.5996		145.914
232		64.972		47.0419
233		97.0357		-47.748
234		171.616		-114.113
235		269.283		-135.911
236		366.081		-108.66
237		439.761		-39.5742
238		474.773		55.2872
239		464.965		155.514
240		413.834		241.09
241		332.769		296.319
242		238.091		312.344
243		147.617		288.119
244		77.3716		229.955
245		38.8904		149.878
246		37.4798		63.1228
247		71.6924		-14.7831
248		134.092		-70.8064
249		213.101		-96.4661
250		295.42		-88.7658
251		368.357		-49.9384
252		421.527		13.6571
253		447.704		92.9145
254		443.074		177.134
255		407.341		254.802
256		344.093		314.291
257		261.364		345.014
258		171.861		339.394
259		92.0276		295.449
260		39.3591		219.115
261		28.122		125.018
262		64.5719		34.6141
263		143.439		-28.5223
264		247.427		-45.2465
265		350.627		-7.17868
266		425.284		79.5563
267		449.977		194.908
268		416.444		310.064
269		332.56		395.748
270		220.268		430.951
271		109.021		409.161
272		26.9268		339.976
273		-7.43642		245.702
274		10.0741		154.204
275		68.9146		90.532
276		147.971		70.0164
277		222.378		94.7968
278		270.73		154.441
279		280.567		229.979
280		250.835		299.796
281		191.093		345.565
282		118.083		356.706
283		50.8452		332.495
284		5.64435		281.562
285		-8.10532		219.105
286		9.97006		162.55
287		51.4167		126.704
288		101.584		119.629
289		144.075		140.395
290		165.831		179.522
291		161.272		222.161
292		134.052		253.149
293		95.6475		262.295
294		61.0908		247.988
295		43.3137		217.679
296		48.2076		184.913
297		72.37		163.95
298		104.519		164.056
299		130.085		185.745
300		137.174		220.563
301		121.462		254.513
302		88.0282		273.767
303		49.3708		270.314
304		20.429		245.259
305		12.6659		208.483
306		29.5661		174.878
307		65.2625		158.727
308		106.678		168.461
309		138.189		203.716
310		146.95		255.593
311		126.961		309.752
312		80.639		351.004
313		17.7045		367.749
314		-47.9025		354.922
315		-101.88		314.866
316		-133.048		256.26
317		-135.707		191.72
318		-110.582		134.823
319		-64.4147		97.183
320		-8.41103		86.0383
321		44.1773		102.72
322		80.958		142.303
323		93.2495		194.644
324		78.1899		246.73
325		39.4436		285.866
326		-13.8385		302.858
327		-69.5891		294.193
328		-116.128		262.494
329		-145.067		215.126
330		-152.84		161.577
331		-140.444		110.687
332		-111.792		68.8446
333		-71.6687		39.693
334		-24.3733		25.1157
335		26.3189		26.5867
336		76.0746		45.7868
337		118.74		83.8352
338		146.087		139.34
339		149.332		206.319
340		122.28		273.399
341		64.9274		325.342
342		-14.1714		346.964
343		-98.2563		328.332
344		-165.952		269.303
345		-197.287		181.449
346		-180.209		86.2066
347		-115.281		9.45795
348		-16.7037		-25.8718
349		90.9051		-6.81348
350		179.113		65.3787
351		223.617		175.118
352		211.058		296.583
353		142.672		400.733
354		33.7864		463.094
355		-90.528		470.071
356		-202.258		422.091
357		-277.714		332.909
358		-303.301		225.475
359		-278.383		125.669
360		-214.679		55.6218
361		-132.525		28.3879
362		-55.1583		45.2323
363		-2.56152		96.1245
364		13.4751		163.153
365		-8.16916		225.827
366		-58.4987		266.736
367		-121.687		275.994
368		-180.024		253.258
369		-218.998		206.894
370		-231.016		150.72
371		-216.753		99.4858
372		-183.932		64.5572
373		-144.163		51.1135
374		-109.011		57.5415
375		-86.6203		76.9607
376		-79.8492		100.129
377		-86.3059		118.64
378		-99.9954		127.381
379		-113.846		125.599
380		-122.216		116.437
381		-122.616		105.29
382		-116.224		97.6001
383		-107.132		96.8248
384		-100.644		103.17
385		-101.155		113.476
386		-110.298		122.318
387		-125.972		124.018
388		-142.694		114.987
389		-153.313		95.5565
390		-151.648		70.5703
391		-135.193		48.271
392		-106.817		37.644
393		-74.6346		45.0103
394		-49.7642		71.1113
395		-42.578		109.936
396		-58.7152		150.008
397		-96.4266		177.926
398		-146.447		183.008
399		-194.672		161.3
400		-226.811		117.366
401		-233.299		63.0159
402		-212.616		13.3943
403		-171.717		-18.143
404		-123.432		-24.3956
405		-81.9171		-6.31531
406		-57.9493		27.9981
407		-55.8622		66.701
408		-73.101		98.4973
409		-102.255		116.078
410		-134.427		117.517
411		-162.38		105.418
412		-182.242		84.6033
413		-193.344		59.6412
414		-196.708		33.3699
415		-193.248		6.91891
416		-182.724		-19.1017
417		-163.981		-43.1332
418		-136.243		-61.8833
419		-100.699		-70.7571
420		-61.461		-65.3966
421		-25.3019		-43.6552
422		-0.144089		-7.13702
423		7.19849		38.3824
424		-6.76154		83.883
425		-40.7367		119.121
426		-88.4278		135.167
427		-139.573		126.802
428		-182.053		94.1855
429		-204.639		43.4089
430		-199.843		-14.2966
431		-166.257		-64.6952
432		-109.741		-93.7759
433		-42.9066		-91.4709
434		17.3611		-54.9374
435		54.0159		9.67519
436		54.6691		87.8403
437		15.684		159.896
438		-55.919		206.274
439		-143.682		213.234
440		-225.985		177.241
441		-282.192		106.392
442		-298.711		18.2331
443		-272.915		-65.4019
444		-213.609		-124.85
445		-137.922		-148.187
446		-65.8004		-134.096
447		-14.062		-91.2642
448		8.00708		-34.781
449		0.245758		18.9522
450		-29.7457		56.9877
451		-70.0441		72.793
452		-108.473		66.7967
453		-135.924		44.8224
454		-148.079		15.3447
455		-145.422		-13.3499
456		-131.945		-35.2693
457		-113.258		-47.7194
458		-94.6982		-51.2374
459		-79.8965		-48.7181
460		-69.9913		-44.0552
461		-63.6188		-40.6277
462		-57.6817		-39.9743
463		-48.7719		-41.0465
464		-34.8973		-40.3895
465		-16.9243		-33.3943
466		0.931763		-16.3677
467		12.031		11.275
468		9.5951		45.6436
469		-10.338		78.6548
470		-46.4576		100.211
471		-91.4036		101.717
472		-133.316		79.6719
473		-159.433		37.8318
474		-160.531		-13.1327
475		-134.522		-58.6239
476		-87.7137		-84.7951
477		-33.1148		-83.2144
478		13.673		-53.7531
479		39.4787		-4.6073
480		37.6517		50.5097
481		9.78802		96.8881
482		-35.3629		123.352
483		-85.1846		125.225
484		-127.303		104.906
485		-153.03		70.1896
486		-159.122		31.2621
487		-147.629		-2.40124
488		-124.313		-24.2556
489		-96.4848		-31.5886
490		-71.0603		-25.244
491		-53.2637		-8.64462
492		-46.0476		13.3849
493		-50.0353		35.6828
494		-63.7782		53.6089
495		-84.215		63.7149
496		-107.314		64.2174
497		-128.863		55.1873
498		-145.275		38.3615
499		-154.176		16.5889
500		-154.594		-6.89948
501		-146.716		-29.0965
502		-131.447		-47.455
503		-110.099		-59.7418
504		-84.4865		-63.7781
505		-57.3912		-57.4832
506		-33.015		-39.5162
507		-16.8705		-10.4351
508		-14.7065		26.1557
509		-30.5385		63.2386
510		-64.4398		91.4192
511		-111.12		101.423
512		-160.227		87.3806
513		-198.729		49.6531
514		-214.835		-4.08718
515		-202.149		-60.2996
516		-162.461		-103.337
517		-105.947		-120.363
518		-48.4949		-105.69
519		-6.93718		-62.9503
520		6.17389		-4.23975
521		-13.5229		53.4795
522		-60.9054		93.4976
523		-123.031		104.28
524		-183.087		82.6495
525		-225.272		34.376
526		-239.111		-27.8046
527		-222.028		-87.9502
528		-179.664		-131.284
529		-124.05		-147.999
530		-70.2613		-135.615
531		-32.4459		-99.4255
532		-20.1543		-51.0035
533		-35.8361		-5.12109
534		-74.132		24.2083
535		-123.24		27.6069
536		-168.132		3.06913
537		-194.835		-43.3196
538		-194.569		-99.0561
539		-166.422		-148.927
540		-117.584		-179.648
541		-60.9813		-183.923
542		-11.0348		-162.486
543		20.9612		-123.424
544		30.1979		-79.0227
545		19.2641		-41.379
546		-3.60065		-18.433
547		-28.0867		-11.8788
548		-45.7228		-17.5776
549		-52.5871		-28.0668
550		-49.9124		-35.9494
551		-42.6229		-36.722
552		-36.6834		-30.0055
553		-36.5047		-18.9424
554		-43.4336		-8.32314
555		-55.7185		-2.43103
556		-69.6511		-3.51619
557		-81.1582		-11.3345
558		-87.1255		-23.6285
559		-86.0734		-37.066
560		-78.2294		-48.1465
561		-65.2925		-53.8405
562		-50.1487		-52.0256
563		-36.568		-41.9112
564		-28.6978		-24.5135
565		-30.1661		-2.97766
566		-42.8584		17.6322
567		-65.7805		31.3659
568		-94.6286		33.1579
569		-122.547		20.7741
570		-142.079		-3.91191
571		-147.698		-35.0396
572		-137.907		-64.4591
573		-115.948		-84.4628
574		-88.6982		-90.4586
575		-64.1573		-82.4418
576		-48.5934		-64.6265
577		-44.5829		-43.4429
578		-50.766		-24.8689
579		-63.2894		-12.3585
580		-78.0925		-6.28848
581		-92.8005		-5.03754
582		-107.251		-6.95467
583		-122.447		-12.0103
584		-138.624		-22.1141
585		-153.635		-39.8252
586		-162.748		-66.1028
587		-160.225		-98.3489
588		-142.094		-129.964
589		-108.803		-151.953
590		-66.3787		-156.109
591		-25.3102		-138.496
592		2.62636		-101.675
593		8.41498		-54.622
594		-10.8627		-10.2192
595		-50.7287		18.7804
596		-100.542		23.8169
597		-146.763		3.16176
598		-177.036		-37.7062
599		-183.69		-87.9427
600		-165.611		-134.606
601		-128.147		-166.219
602		-81.3315		-175.595
603		-37.1402		-161.336
604		-6.56017		-127.854
605		2.90554		-84.1377
606		-11.1135		-41.6212
607		-45.2879		-11.56
608		-91.2329		-2.37326
609		-137.354		-17.4659
610		-171.643		-54.1057
611		-184.852		-103.824
612		-173.178		-154.47
613		-139.566		-193.526
614		-93.0302		-211.76
615		-46.0243		-206.024
616		-10.6296		-180.174
617		5.17353		-143.717
618		-0.163071		-108.59
619		-21.6427		-85.2361
620		-49.8214		-79.3653
621		-74.2688		-90.5453
622		-87.0713		-112.993
623		-85.1236		-138.113
624		-70.5143		-157.694
625		-49.0963		-166.56
626		-27.9896		-163.812
627		-13.049		-152.443
628		-7.16759		-137.734
629		-9.83067		-125.185
630		-17.8173		-118.746
631		-26.5956		-119.821
632		-31.8644		-127.171
633		-30.808		-137.551
634		-22.8233		-146.799
635		-9.64276		-151.079
636		5.13931		-148.044
637		17.0649		-137.65
638		22.1689		-122.401
639		18.375		-106.818
640		6.48399		-96.1436
641		-9.69762		-94.5576
642		-24.3258		-103.496
643		-31.4171		-120.746
644		-27.0744		-140.826
645		-11.1768		-156.696
646		12.2276		-162.251
647		36.1271		-154.687
648		52.9892		-135.719
649		57.5255		-111.127
650		48.6688		-88.706
651		29.9538		-75.4404
652		8.14799		-75.0177
653		-9.28199		-86.6666
654		-16.8233		-105.719
655		-12.638		-125.56
656		1.23386		-140.092
657		20.1009		-145.689
658		38.608		-141.959
659		52.5912		-131.215
660		60.1037		-117.087
661		61.3911		-103.032
662		58.0868		-91.3293
663		52.1738		-82.8616
664		45.222		-77.4987
665		38.1381		-74.7192
666		31.3418		-74.0771
667		25.0967		-75.3474
668		19.7395		-78.4154
669		15.7123		-83.1027
670		13.4796		-89.0797
671		13.4603		-95.8732
672		16.0288		-102.867
673		21.5048		-109.207
674		29.9834		-113.655
675		40.9526		-114.589
676		52.8488		-110.363
677		62.8847		-100.084
678		67.49		-84.5455
679		63.465		-66.8264
680		49.533		-52.0327
681		27.6272		-45.9515
682		3.15817		-52.9235
683		-16.1679		-73.7261
684		-22.7964		-104.454
685		-12.2027		-137.11
686		14.977		-161.932
687		52.5723		-170.733
688		90.605		-159.936
689		118.578		-132.088
690		129.088		-95.1286
691		120.341		-59.6688
692		96.5927		-35.3364
693		66.3896		-27.6171
694		39.3947		-36.3805
695		23.1053		-56.528
696		20.7156		-80.3104
697		30.7867		-100.237
698		48.5827		-111.394
699		68.2734		-112.41
700		84.9953		-104.967
701		96.0189		-92.4077
702		100.819		-78.2121
703		100.367		-64.9889
704		96.2227		-54.2022
705		89.902		-46.4308
706		82.679		-41.7599
707		75.6614		-39.9844
708		69.838		-40.5753
709		65.9199		-42.5988
710		64.0391		-44.8437
711		63.566		-46.2418
712		63.3045		-46.4102
713		62.0985		-45.9659
714		59.5913		-46.3128
715		56.6909		-48.8811
716		55.3779		-54.1436
717		57.8077		-60.9454
718		65.075		-66.6092
719		76.2603		-67.9135
720		88.3268		-62.5798
721		97.0628		-50.5802
722		98.7439		-34.5834
723		91.7979		-19.2241
724		77.6941		-9.42619
725		60.5993		-8.4771
726		45.901		-16.6953
727		38.217		-31.2725
728		39.7339		-47.3472
729		49.5499		-59.8215
730		64.2268		-65.1362
731		79.2186		-62.2955
732		90.506		-52.8318
733		95.7687		-39.8831
734		94.7267		-26.9099
735		88.7109		-16.6294
736		79.8428		-10.5184
737		70.2754		-8.88693
738		61.7776		-11.2583
739		55.6664		-16.7252
740		52.8792		-24.1035
741		53.9587		-31.9281
742		58.8709		-38.4925
743		66.7809		-42.1048
744		76.0194		-41.562
745		84.4092		-36.6383
746		89.9037		-28.2981
747		91.2769		-18.445
748		88.5191		-9.26469
749		82.7195		-2.4587
750		75.4861		1.24581
751		68.2202		2.06279
752		61.6586		0.640579
753		55.9445		-2.58253
754		51.1691		-7.72127
755		48.013		-15.2079
756		47.9996		-25.0541
757		53.0491		-36.0385
758		64.4203		-45.3878
759		81.5273		-49.3361
760		101.316		-44.5078
761		118.702		-29.5889
762		128.12		-6.48869
763		125.642		19.6878
764		110.782		42.0476
765		87.1426		54.263
766		61.4712		52.9521
767		41.4219		39.0836
768		32.8548		17.7753
769		37.7605		-3.48277
770		53.6335		-17.4837
771		74.5218		-19.7852
772		93.2832		-10.062
773		104.117		8.12512
774		104.389		28.9359
775		95.1265		46.4966
776		80.1512		56.8712
777		64.3538		59.0628
778		51.872		54.8179
779		44.8605		47.5091
780		43.1886		40.6714
781		44.9855		36.7905
782		47.6537		36.7147
783		48.8865		39.7438
784		47.3522		44.1917
785		42.9211		48.1146
786		36.4991		49.949
787		29.6278		48.922
788		23.993		45.2128
789		20.9418		39.8872
790		21.0698		34.6288
791		23.9588		31.2875
792		28.1581		31.3026
793		31.496		35.1376
794		31.7108		41.928
795		27.2524		49.5387
796		17.9808		55.1093
797		5.45741		55.9749
798		-7.36164		50.659
799		-16.996		39.5551
800		-20.6015		24.9913
801		-16.9987		10.5976
802		-7.16937		0.171799
803		5.97691		-3.55226
804		18.4913		0.205505
805		26.6063		10.0325
806		27.8586		22.7858
807		21.7557		34.5572
808		9.82185		41.79
809		-4.91615		42.2004
810		-18.7783		35.2764
811		-28.3459		22.2963
812		-31.2221		5.95195
813		-26.5171		-10.284
814		-15.017		-22.9025
815		0.961166		-29.0986
816		18.0173		-27.4033
817		32.3751		-18.0832
818		40.7497		-3.18377
819		41.1874		13.8711
820		33.6332		29.0923
821		20.0043		38.9704
822		3.68085		41.4403
823		-11.4699		36.4322
824		-22.2228		25.7926
825		-26.8817		12.5873
826		-25.6004		0.0455666
827		-20.0412		-9.44724
828		-12.5473		-14.9243
829		-5.20105		-16.792
830		0.823975		-16.2529
831		5.37337		-14.5199
832		8.9028		-12.2184
833		11.8201		-9.25343
834		13.9576		-5.17293
835		14.4727		0.201828
836		12.2453		6.2462
837		6.57616		11.4202
838		-2.17047		13.6858
839		-12.33		11.2994
840		-21.2702		3.63203
841		-26.1992		-8.35678
842		-25.1348		-22.2239
843		-17.6509		-34.7102
844		-5.10735		-42.7277
845		9.71407		-44.2994
846		23.4204		-39.1298
847		32.9656		-28.6401
848		36.4429		-15.5074
849		33.4957		-2.90425
850		25.2873		6.30947
851		14.1084		10.2239
852		2.7792		8.2299
853		-5.99441		1.05606
854		-10.1816		-9.4618
855		-8.82163		-20.8098
856		-2.19827		-30.3435
857		8.23758		-35.8597
858		20.1997		-36.0844
859		31.0992		-30.958
860		38.6633		-21.627
861		41.4743		-10.1229
862		39.2652		1.18981
863		32.8814		10.2291
864		23.9279		15.6742
865		14.2435		17.1589
866		5.40222		15.1448
867		-1.58367		10.5711
868		-6.28423		4.45942
869		-8.65614		-2.34734
870		-8.78578		-9.22557
871		-6.7381		-15.6291
872		-2.60117		-20.9063
873		3.30726		-24.2383
874		10.214		-24.7945
875		16.8197		-22.0692
876		21.4927		-16.2511
