Compute Correlation 
 
0		184.786		383.239
1		95.7736		499.546
2		-46.2543		567.936
3		-215.446		569.728
4		-380.947		498.098
5		-511.02		359.196
6		-577.979		172.593
7		-564.31		-30.2265
8		-468.694		-210.959
9		-309.213		-333.404
10		-120.938		-374.159
11		52.9757		-331.045
12		174.432		-225.091
13		222.956		-94.1389
14		202.264		20.1803
15		137.698		87.0304
16		65.3964		96.3606
17		17.9548		60.1251
18		12.9319		4.65979
19		48.9757		-41.6805
20		110.361		-59.5328
21		176.519		-43.3421
22		230.997		1.10083
23		265.388		63.4074
24		277.373		134.597
25		265.89		208.531
26		228.215		278.608
27		162.154		333.319
28		72.5379		355.705
29		-22.694		329.561
30		-92.733		250.628
31		-103.56		136.537
32		-34.5461		28.1169
33		105.767		-22.0289
34		274.118		28.9062
35		403.001		191.228
36		425.379		430.473
37		303.975		673.722
38		51.6869		834.344
39		-267.623		845.861
40		-560.224		690.213
41		-737.474		407.303
42		-749.706		80.8104
43		-604.184		-193.843
44		-359.538		-345.263
45		-100.016		-350.005
46		98.0144		-235.152
47		192.095		-60.4411
48		181.788		109.695
49		98.004		230.196
50		-18.0998		285.157
51		-134.227		281.644
52		-234.562		234.515
53		-314.31		153.255
54		-367.664		39.0968
55		-379.34		-106.736
56		-326.998		-270.55
57		-194.349		-419.585
58		12.8564		-508.195
59		258.759		-495.867
60		484.5		-368.224
61		629.344		-149.086
62		656.257		104.629
63		568.797		324.441
64		409.914		458.497
65		242.378		492.454
66		120.34		452.401
67		66.3513		388.436
68		65.4131		347.698
69		78.479		351.153
70		67.4133		386.24
71		17.3521		418.576
72		-55.8362		415.394
73		-116.713		366.951
74		-133.149		293.519
75		-97.3278		233.932
76		-32.3496		222.378
77		19.8246		267.072
78		22.4727		343.628
79		-33.6103		407.674
80		-122.96		420.164
81		-198.445		371.137
82		-217.997		287.928
83		-170.4		222.08
84		-85.2602		221.089
85		-20.4193		299.993
86		-32.3399		428.719
87		-144.677		543.164
88		-331.937		575.446
89		-527.7		488.25
90		-654.175		295.509
91		-658.587		58.3857
92		-538.121		-141.9
93		-340.905		-240.924
94		-142.763		-219.299
95		-11.7037		-108.598
96		22.0184		27.1263
97		-24.1399		124.011
98		-98.7419		148.342
99		-145.387		109.197
100		-131.417		48.8143
101		-61.9562		17.356
102		26.49		46.2015
103		87.6996		133.465
104		90.0688		247.922
105		30.8281		347.368
106		-66.0444		400.27
107		-165.101		399.035
108		-238.064		359.047
109		-275.348		306.101
110		-285.265		260.975
111		-283.414		230.45
112		-280.283		209.116
113		-275.317		189.18
114		-260.837		170.597
115		-232.447		164.034
116		-198.182		184.145
117		-179.255		237.288
118		-200.549		311.84
119		-275.661		378.335
120		-395.349		401.002
121		-526.974		355.39
122		-626.728		242.611
123		-659.165		91.931
124		-614.138		-50.5816
125		-512.208		-142.171
126		-395.479		-162.277
127		-308.393		-120.777
128		-278.156		-51.7643
129		-304.327		3.48294
130		-362.012		15.3877
131		-415.952		-22.4542
132		-437.495		-93.9486
133		-415.882		-171.399
134		-359.195		-229.719
135		-286.393		-256.322
136		-216.327		-252.598
137		-160.232		-228.239
138		-120.898		-193.534
139		-96.9824		-154.949
140		-87.7701		-116.081
141		-94.114		-81.7094
142		-114.739		-60.3126
143		-141.216		-61.5026
144		-156.711		-88.8362
145		-141.657		-132.595
146		-84.8717		-168.51
147		5.89597		-165.716
148		101.175		-101.745
149		158.675		22.7464
150		141.463		178.142
151		37.1468		313.953
152		-132.018		378.758
153		-314.504		343.238
154		-449.193		215.046
155		-490.696		37.6562
156		-428.37		-126.868
157		-289.975		-223.196
158		-128.58		-224.143
159		0.368752		-138.401
160		60.3157		-2.11289
161		43.4014		139.907
162		-34.244		252.763
163		-146.758		320.569
164		-272.735		343.153
165		-400.958		325.064
166		-525.487		265.929
167		-635.299		159.686
168		-707.577		3.8191
169		-711.8		-187.685
170		-624.747		-377.646
171		-448.775		-512.72
172		-221.814		-543.843
173		-10.4878		-451.126
174		113.717		-259.841
175		105.511		-36.9791
176		-30.9962		132.892
177		-239.726		182.876
178		-433.95		93.7553
179		-532.892		-96.1767
180		-496.854		-307.18
181		-344.124		-453.179
182		-141.495		-479.593
183		27.08		-386.088
184		98.5657		-223.842
185		57.5837		-69.397
186		-60.2798		11.5931
187		-188.877		-6.91953
188		-264.425		-103.282
189		-254.37		-222.974
190		-168.745		-307.344
191		-50.2026		-321.121
192		50.266		-265.49
193		98.4438		-171.921
194		90.2848		-82.0829
195		48.3111		-25.664
196		5.04044		-7.72307
197		-16.2208		-10.8965
198		-12.6675		-9.34235
199		-0.267136		14.6607
200		-1.59189		60.9741
201		-31.3046		113.399
202		-87.8783		150.715
203		-155.736		159.58
204		-215.577		141.51
205		-256.025		110.245
206		-279.42		81.7893
207		-298.51		63.6898
208		-326.47		50.2964
209		-366.665		26.8877
210		-408.636		-19.8986
211		-433.004		-91.7231
212		-422.629		-174.686
213		-373.631		-244.616
214		-299.826		-278.91
215		-227.735		-268.543
216		-184.551		-223.707
217		-185.249		-169.934
218		-225.449		-136.639
219		-283.533		-143.902
220		-330.686		-193.987
221		-343.635		-271.442
222		-313.88		-351.084
223		-249.432		-409.424
224		-169.113		-433.857
225		-93.0126		-425.663
226		-34.0942		-396.369
227		5.36298		-360.25
228		31.6771		-327.142
229		54.0602		-298.873
230		78.6452		-270.3
231		105.055		-233.596
232		126.571		-183.266
233		133.172		-119.641
234		115.744		-49.7898
235		69.8667		13.9877
236		-1.79542		57.2905
237		-88.8564		67.5382
238		-174.487		37.9853
239		-238.718		-28.9538
240		-263.585		-120.175
241		-239.133		-213.364
242		-168.372		-282.076
243		-68.8086		-303.597
244		31.0297		-267.128
245		99.7741		-178.911
246		113.475		-61.6556
247		63.9066		52.2137
248		-38.6643		131.084
249		-169.516		154.193
250		-298.435		117.035
251		-399.47		30.2477
252		-457.241		-86.6381
253		-467.724		-212.832
254		-434.611		-331.349
255		-364.724		-429.677
256		-265.964		-497.392
257		-148.975		-524.192
258		-30.4982		-501.523
259		65.63		-428.233
260		113.089		-317.124
261		93.1471		-197.299
262		5.90765		-108.408
263		-123.812		-87.0344
264		-251.089		-150.485
265		-326.182		-286.07
266		-314.749		-452.551
267		-213.548		-594.981
268		-53.2354		-667.198
269		114.324		-651.592
270		239.058		-566.169
271		295.091		-454.787
272		291.291		-364.864
273		264.318		-323.589
274		257.434		-324.853
275		295.903		-333.96
276		371.979		-307.968
277		447.792		-221.175
278		475.164		-82.1744
279		422.353		67.0355
280		293.725		170.211
281		131.624		184.968
282		-1.29002		105.593
283		-50.9125		-31.3008
284		2.39314		-161.562
285		133.624		-221.769
286		283.61		-177.336
287		384.808		-37.1273
288		389.833		151.733
289		289.427		325.366
290		112.516		429.848
291		-89.8336		440.509
292		-267.228		366.039
293		-388.098		237.913
294		-445.71		92.7473
295		-451.824		-42.5476
296		-424.22		-156.192
297		-376.384		-247.321
298		-314.716		-317.499
299		-242.895		-364.935
300		-168.259		-385.404
301		-104.065		-378.554
302		-64.8119		-354.087
303		-57.0439		-332.013
304		-71.864		-334.941
305		-85.1529		-375.823
306		-67.1867		-448.26
307		2.47781		-525.907
308		122.78		-572.733
309		268.816		-559.693
310		401.555		-479.262
311		485.175		-349.942
312		503.179		-208.029
313		464.925		-90.777
314		399.316		-19.7523
315		339.342		7.002
316		306.032		10.3988
317		300.344		16.6178
318		306.691		42.4685
319		305.087		88.0479
320		284.032		140.249
321		246.3		184.044
322		204.418		213.846
323		169.217		237.378
324		139.294		269.304
325		98.8545		318.503
326		26.3285		377.222
327		-90.6517		419.828
328		-242.831		413.442
329		-397.681		335.584
330		-511.068		189.239
331		-547.213		6.36728
332		-496.8		-163.288
333		-383.463		-273.302
334		-254.648		-301.22
335		-161.053		-258.349
336		-134.755		-183.828
337		-176.714		-126.276
338		-259.172		-122.503
339		-340.589		-183.72
340		-384.551		-295.047
341		-372.923		-426.638
342		-307.735		-548.866
343		-203.228		-642.835
344		-74.9008		-701.558
345		66.8385		-723.55
346		214.897		-705.449
347		358.326		-640.418
348		476.737		-524.569
349		542.758		-367.335
350		533.721		-197.733
351		447.016		-59.7489
352		309.574		3.88891
353		173.618		-27.3196
354		97.7929		-137.138
355		121.271		-273.95
356		243.538		-369.79
357		421.041		-369.391
358		583.921		-255.516
359		665.856		-57.7871
360		632.907		159.928
361		497.388		327.776
362		310.216		400.067
363		136.066		372.745
364		24.1888		280.413
365		-10.6015		175.777
366		11.6851		103.226
367		52.6702		80.4288
368		78.3864		96.4906
369		75.3686		125.493
370		51.945		145.783
371		25.8389		152.907
372		7.27948		158.752
373		-10.9113		178.422
374		-49.5463		214.085
375		-127.751		247.032
376		-245.811		244.172
377		-377.625		176.193
378		-478.858		36.9967
379		-507.633		-147.556
380		-446.684		-327.983
381		-314.327		-453.304
382		-157.296		-495.451
383		-28.5384		-462.641
384		38.3868		-394.12
385		44.4818		-338.93
386		21.8969		-330.286
387		14.1116		-369.598
388		51.0789		-428.725
389		133.434		-468.609
390		234.521		-463.138
391		318.591		-414.117
392		364.01		-348.557
393		377.306		-299.934
394		389.159		-284.781
395		434.152		-289.093
396		525.991		-273.675
397		643.31		-196.565
398		735.696		-40.3064
399		748.24		171.828
400		652.011		381.214
401		463.595		519.68
402		242.021		543.031
403		63.255		454.608
404		-15.3131		305.916
405		17.7717		173.201
406		123.021		121.628
407		229.887		175.257
408		271.082		307.91
409		213.533		458.838
410		70.5063		564.066
411		-110.112		586.464
412		-273.516		529.124
413		-385.735		426.431
414		-446.459		319.663
415		-481.145		232.124
416		-518.66		158.179
417		-568.785		71.845
418		-613.437		-51.1429
419		-617.022		-211.799
420		-549.765		-380.532
421		-409.977		-509.249
422		-231.504		-556.69
423		-70.8605		-512.741
424		19.796		-407.547
425		19.4623		-299.429
426		-49.8372		-247.29
427		-132.883		-281.813
428		-167.91		-390.531
429		-116.257		-524.417
430		20.1645		-622.127
431		201.889		-638.971
432		372.681		-565.759
433		486.252		-428.876
434		524.866		-273.397
435		501.296		-139.841
436		445.393		-47.5559
437		384.854		7.34502
438		331.98		40.7143
439		283.404		64.7019
440		231.108		78.4726
441		175.904		71.2066
442		133.218		34.8528
443		126.219		-22.6088
444		169.822		-73.4687
445		255.63		-80.5641
446		348.352		-17.1293
447		398.09		114.848
448		363.593		279.167
449		234.521		417.786
450		40.2587		476.12
451		-160.596		428.795
452		-305.733		292.421
453		-357.095		118.35
454		-317.233		-31.1828
455		-225.943		-111.526
456		-139.391		-114.415
457		-102.842		-68.2337
458		-130.931		-20.7769
459		-204.693		-14.5047
460		-285.211		-67.4656
461		-335.025		-168.961
462		-335.135		-290.275
463		-289.127		-402.534
464		-214.113		-490.582
465		-125.903		-555.277
466		-28.683		-604.371
467		84.1465		-639.407
468		218.928		-648.431
469		368.4		-610.468
470		505.936		-509.924
471		592.978		-352.236
472		597.212		-170.295
473		511.936		-15.8225
474		365.275		61.6689
475		212.675		38.1578
476		114.982		-71.6201
477		112.396		-218.499
478		207.205		-339.352
479		363.903		-383.827
480		526.332		-334.259
481		642.85		-209.472
482		686.81		-51.7237
483		662.806		95.2669
484		597.189		205.297
485		519.774		276.365
486		447.662		323.26
487		379.907		362.234
488		304.66		397.834
489		212.969		419.852
490		109.729		411.633
491		14.4841		363.836
492		-48.6369		284.422
493		-65.6862		197.958
494		-43.0441		133.943
495		-6.18493		110.679
496		13.0289		124.26
497		-6.29271		149.549
498		-61.8995		153.271
499		-128.616		112.27
500		-171.257		26.8452
501		-163.397		-78.3678
502		-101.773		-166.683
503		-8.44421		-208.207
504		80.425		-195.088
505		133.006		-145.035
506		137.523		-91.5183
507		107.037		-66.255
508		71.2732		-83.5279
509		60.515		-134.455
510		90.5469		-193.526
511		156.488		-232.955
512		237.928		-236.525
513		311.409		-205.544
514		362.574		-154.623
515		391.255		-100.899
516		407.457		-53.793
517		421.839		-11.37
518		437.253		35.1587
519		446.825		92.472
520		439.516		158.05
521		409.21		219.885
522		361.035		263.384
523		310.371		281.087
524		274.638		278.797
525		262.703		273.766
526		268.515		285.426
527		273.314		323.89
528		255.647		383.154
529		203.616		443.38
530		122.162		481.366
531		30.8394		483.357
532		-46.9251		452.706
533		-97.047		407.707
534		-122.723		370.594
535		-142.233		353.917
536		-177.555		352.32
537		-240.179		344.768
538		-322.361		306.402
539		-399.173		223.509
540		-440.69		103.139
541		-427.792		-28.3377
542		-362.905		-137.322
543		-269.646		-199.355
544		-181.377		-210.961
545		-124.823		-190.613
546		-107.484		-168.446
547		-115.413		-170.446
548		-122.129		-205.687
549		-103.363		-263.21
550		-49.4368		-319.608
551		31.2285		-352.474
552		118.664		-351.913
553		193.486		-323.91
554		247.258		-284.364
555		285.232		-248.049
556		320.455		-219.477
557		363.438		-191.094
558		414.052		-149.557
559		460.751		-85.8424
560		487.524		-2.64034
561		484.158		85.7461
562		453.3		161.102
563		409.715		211.951
564		371.901		240.559
565		350.958		261.79
566		343.43		294.138
567		332.66		348.071
568		298.189		418.546
569		227.95		486.322
570		126.215		527.579
571		12.5941		526.506
572		-87.4849		483.727
573		-155.454		415.757
574		-188.273		345.883
575		-198.266		291.771
576		-204.476		256.948
577		-220.792		230.926
578		-247.943		197.602
579		-274.024		146.644
580		-283.056		80.8453
581		-266.205		14.8882
582		-228.62		-33.8132
583		-187.39		-56.6134
584		-161.5		-60.2954
585		-159.61		-64.3878
586		-173.087		-90.1326
587		-178.968		-147.196
588		-151.829		-225.892
589		-78.281		-299.871
590		34.0158		-338.405
591		158.157		-321.925
592		260.049		-252.428
593		314.467		-153.035
594		316.63		-56.8512
595		283.234		8.89012
596		242.682		34.9651
597		220.117		32.3505
598		225.456		23.8646
599		250.683		30.4491
600		277.17		59.9953
601		288.207		104.792
602		279.122		148.448
603		259.179		177.627
604		244.45		191.264
605		246.294		201.648
606		262.607		226.716
607		277.337		278.216
608		268.804		352.869
609		222.139		432.01
610		138.645		490.218
611		36.5882		508.286
612		-57.2462		483.292
613		-120.661		430.209
614		-146.698		374.191
615		-146.19		337.85
616		-141.155		330.438
617		-153.004		344.492
618		-192.08		361.172
619		-253.881		360.689
620		-323.175		331.815
621		-382.784		275.558
622		-421.568		201.963
623		-437.316		123.062
624		-433.909		46.8927
625		-415.791		-23.8651
626		-384.218		-88.6192
627		-338.096		-144.289
628		-278.56		-183.665
629		-213.46		-198.8
630		-157.421		-187.717
631		-125.909		-159.742
632		-125.904		-134.829
633		-148.827		-135.491
634		-170.998		-174.728
635		-163.102		-246.57
636		-104.751		-325.396
637		3.39076		-375.867
638		137.037		-369.364
639		257.744		-298.672
640		330.377		-182.816
641		339.829		-58.8364
642		298.115		35.8327
643		237.761		81.395
644		194.708		84.6345
645		189.675		73.944
646		217.905		83.0785
647		252.754		132.414
648		261.039		217.87
649		221.611		313.444
650		136.91		385.743
651		31.1956		412.298
652		-63.3459		393.345
653		-124.634		350.553
654		-152.574		313.547
655		-168.043		302.03
656		-199.573		313.787
657		-265.365		325.529
658		-360.957		306.224
659		-459.732		235.452
660		-526.199		116.394
661		-534.754		-23.975
662		-483.53		-147.75
663		-395.642		-225.005
664		-307.187		-248.374
665		-248.697		-235.435
666		-230.25		-217.884
667		-238.2		-223.818
668		-244.834		-263.079
669		-225.022		-323.576
670		-170.203		-380.079
671		-91.9498		-409.834
672		-13.588		-405.674
673		44.6701		-379.053
674		77.9723		-351.593
675		99.1086		-340.535
676		129.55		-347.121
677		184.751		-355.074
678		262.722		-340.318
679		343.055		-286.271
680		397.422		-195.561
681		405.726		-90.8674
682		368.52		-3.86435
683		308.187		41.8227
684		257.672		43.9991
685		242.712		23.8031
686		267.396		14.6261
687		311.249		43.8662
688		339.745		117.46
689		322.699		215.737
690		250.634		302.958
691		140.299		345.443
692		26.4808		328.527
693		-55.3017		263.42
694		-85.8557		180.659
695		-70.2063		114.152
696		-32.7139		84.6803
697		-2.85051		91.5335
698		0.11058		116.015
699		-24.755		133.852
700		-62.6989		128.885
701		-94.1164		100.342
702		-106.438		60.3359
703		-100.027		24.1989
704		-85.1992		0.305367
705		-73.1118		-14.1434
706		-67.0057		-29.0588
707		-59.7636		-52.259
708		-39.51		-81.6116
709		0.3946		-104.207
710		53.7226		-103.752
711		101.725		-71.952
712		122.269		-16.6774
713		102.989		38.8701
714		50.6734		66.6582
715		-9.25802		48.7699
716		-43.9555		-11.5336
717		-29.5442		-89.3168
718		36.0648		-149.084
719		131.206		-162.031
720		220.815		-120.297
721		273.827		-40.4842
722		278.335		45.5719
723		246.389		107.798
724		205.922		133.422
725		184.382		132.651
726		193.125		131.55
727		221.142		156.258
728		241.403		217.364
729		226.148		303.062
730		162.587		384.676
731		60.4678		431.36
732		-52.3987		425.808
733		-143.879		372.566
734		-192.856		294.875
735		-198.036		222.353
736		-176.091		176.63
737		-151.079		162.644
738		-141.649		169.576
739		-153.18		179.754
740		-178.502		179.53
741		-205.542		165.636
742		-226.323		143.903
743		-241.451		122.173
744		-257.6		102.792
745		-280.234		80.018
746		-306.992		44.1647
747		-326.701		-10.3003
748		-325.251		-78.379
749		-294.924		-144.708
750		-241.067		-191.032
751		-181.261		-206.932
752		-136.495		-197.201
753		-118.991		-180.732
754		-123.866		-180.608
755		-130.155		-210.48
756		-111.548		-265.012
757		-51.4437		-320.436
758		46.0447		-345.778
759		155.736		-319.193
760		242.608		-240.566
761		279.069		-133.195
762		259.075		-33.1031
763		201.355		28.6273
764		139.736		41.1672
765		105.611		18.653
766		111.908		-8.2529
767		147.14		-9.35944
768		182.608		28.7166
769		188.671		95.6575
770		151.1		163.517
771		78.6941		202.161
772		-1.73822		195.464
773		-59.9005		149.46
774		-77.8297		88.3496
775		-58.3957		41.022
776		-22.2271		25.8693
777		4.62196		42.248
778		4.94617		72.8403
779		-21.4001		94.8754
780		-59.4949		93.3082
781		-89.6514		68.3511
782		-99.4742		33.4449
783		-90.4693		5.54922
784		-75.6036		-5.93767
785		-69.7976		-4.78426
786		-79.5531		-4.80302
787		-98.2691		-20.1893
788		-110.171		-55.527
789		-100.391		-101.84
790		-64.8762		-141.316
791		-13.8307		-157.96
792		33.7368		-147.642
793		61.3098		-121.229
794		65.2496		-98.4909
795		57.794		-96.075
796		60.4154		-116.594
797		91.0042		-145.504
798		152.188		-158.119
799		227.756		-133.199
800		289.698		-65.577
801		312.36		29.443
802		286.008		122.709
803		222.274		185.509
804		148.37		203.814
805		93.1657		184.74
806		72.7181		151.816
807		83.0786		131.812
808		104.034		140.523
809		111.336		175.246
810		90.3439		217.776
811		43.4911		245.729
812		-12.2573		245.458
813		-55.9838		219.203
814		-74.978		182.729
815		-71.4107		155.32
816		-59.9466		148.344
817		-58.1526		159.147
818		-75.7294		173.643
819		-109.055		175.643
820		-144.123		157.023
821		-165.791		122.482
822		-167.437		86.0875
823		-154.994		61.9278
824		-142.834		54.8081
825		-144.096		56.9237
826		-161.544		52.7395
827		-184.824		29.2023
828		-196.154		-15.0256
829		-181.232		-67.228
830		-138.811		-107.056
831		-82.8571		-118.229
832		-35.533		-98.6162
833		-14.7123		-62.4407
834		-23.2698		-32.8084
835		-46.6664		-28.4806
836		-60.7338		-52.4446
837		-45.6142		-89.1265
838		1.98899		-112.337
839		65.4497		-99.8656
840		116.094		-46.6507
841		128.304		31.05
842		93.5948		103.148
843		25.7881		141.036
844		-45.7675		132.412
845		-91.3322		87.464
846		-96.01		33.0166
847		-66.7646		-2.08052
848		-27.5038		-2.21402
849		-5.18466		27.463
850		-14.8305		65.1761
851		-51.8062		85.7026
852		-95.4405		74.9264
853		-121.594		37.5337
854		-116.773		-6.29915
855		-85.6922		-33.0119
856		-48.1424		-29.377
857		-27.2496		0.104057
858		-36.1267		36.2225
859		-70.6795		56.4818
860		-112.581		48.0656
861		-140.41		14.7524
862		-142.215		-26.118
863		-122.051		-54.5977
864		-96.7232		-60.3144
865		-84.8529		-48.5564
866		-94.9572		-36.6342
867		-119.795		-42.7513
868		-140.489		-74.1376
869		-138.043		-121.698
870		-105.396		-164.602
871		-52.688		-182.303
872		-2.32881		-166.989
873		23.5252		-128.997
874		15.9314		-91.7521
875		-15.0485		-78.8473
876		-45.3119		-100.544
877		-49.8451		-147.466
878		-16.6768		-195.246
879		46.2572		-217.616
880		115.266		-200.644
