Compute Correlation 
 
0		150.816		-467.954
1		190.501		-448.985
2		229.773		-435.788
3		279.917		-416.745
4		336.57		-373.503
5		378.646		-295.585
6		378.506		-192.036
7		318.391		-92.7539
8		204.241		-37.5302
9		68.839		-57.5088
10		-38.5448		-158.19
11		-71.9258		-312.838
12		-8.71526		-470.224
13		139.298		-573.673
14		329.221		-582.903
15		502.925		-489.019
16		608.135		-316.591
17		615.569		-113.027
18		525.673		68.9233
19		364.03		187.47
20		169.669		220.856
21		-17.231		167.759
22		-163.342		42.0474
23		-244.815		-133.265
24		-247.08		-329.561
25		-165.438		-513.744
26		-8.13045		-649.93
27		199.838		-704.888
28		416.354		-657.796
29		589.042		-510.931
30		669.566		-295.414
31		630.894		-66.915
32		480.049		109.54
33		259.504		180.984
34		34.9824		125.576
35		-126.373		-39.0678
36		-178.698		-262.289
37		-111.596		-478.907
38		49.6783		-631.812
39		257.04		-689.108
40		458.615		-649.417
41		615.136		-535.072
42		707.289		-378.542
43		733.033		-209.869
44		699.256		-50.847
45		614.403		83.1811
46		486.846		177.956
47		329.128		217.313
48		163.683		186.506
49		24.0216		81.0663
50		-52.2322		-84.0922
51		-36.99		-272.014
52		74.1716		-431.499
53		255.207		-513.832
54		455.127		-491.623
55		614.96		-370.89
56		689.36		-190.063
57		663.309		-5.61317
58		556.384		129.611
59		412.814		185.762
60		282.191		164.714
61		199.813		95.0088
62		175.244		16.4246
63		193.187		-37.9637
64		224.695		-54.0097
65		242.147		-38.4613
66		230.661		-11.5763
67		191.462		4.40478
68		137.497		-5.31647
69		85.4055		-44.6643
70		48.8955		-109.099
71		36.5479		-190.485
72		53.5488		-280.386
73		104.215		-369.784
74		191.968		-446.41
75		315.667		-493.084
76		464.355		-490.177
77		614.443		-422.714
78		732.747		-289.298
79		785.842		-108.026
80		752.476		84.7291
81		633.591		243.571
82		454.989		328.311
83		260.874		317.479
84		100.623		215.579
85		14.0666		51.4157
86		20.8129		-131.221
87		116.869		-286.253
88		278.263		-376.51
89		468.697		-380.359
90		647.637		-293.527
91		776.724		-127.998
92		824.58		89.9393
93		771.444		321.917
94		614.519		521.272
95		372.913		640.327
96		89.0647		641.649
97		-176.713		510.914
98		-359.76		266.369
99		-409.915		-40.5303
100		-309.344		-336.147
101		-81.8392		-545.44
102		211.514		-615.781
103		490.202		-534.856
104		679.856		-335.282
105		736.136		-83.6372
106		657.982		142.16
107		485.52		278.545
108		284.125		295.579
109		121.34		203.361
110		45.521		44.6147
111		73.2964		-122.242
112		188.688		-242.405
113		351.979		-279.729
114		513.514		-223.875
115		627.279		-89.5581
116		660.969		89.5821
117		601.667		269.529
118		457.787		404.901
119		258.056		457.834
120		47.4041		406.53
121		-120.956		252.485
122		-197.397		24.1337
123		-149.942		-225.898
124		23.4184		-431.497
125		289.151		-530.458
126		583.131		-483.963
127		826.507		-291.484
128		948.544		5.06392
129		909.152		330.765
130		713.112		598.712
131		410.515		736.061
132		82.6713		706.447
133		-182.064		521.172
134		-314.589		235.492
135		-284.967		-68.5367
136		-109.867		-306.767
137		154.188		-417.246
138		428.892		-376.727
139		637.432		-205.022
140		725.822		43.1742
141		676.327		295.699
142		509.831		483.935
143		277.359		561.255
144		43.9709		514.01
145		-129.887		362.591
146		-204.202		153.095
147		-168.194		-57.2825
148		-40.2848		-216.423
149		139.84		-290.321
150		323.88		-269.654
151		468.068		-168.956
152		543.089		-19.8627
153		538.757		138.581
154		463.516		269.398
155		340.351		344.817
156		201.067		350.509
157		80.2404		287.426
158		9.12425		171.872
159		9.31546		33.7194
160		86.5341		-88.1112
161		226.1		-153.688
162		392.689		-133.071
163		536.622		-17.58
164		606.848		173.069
165		567.581		391.99
166		412.819		576.501
167		172.405		667.202
168		-94.2961		628.415
169		-316.17		461.929
170		-433.583		207.948
171		-418.16		-67.9236
172		-281.182		-296.876
173		-67.3167		-429.435
174		163.273		-449.389
175		356.521		-374.126
176		480.637		-242.61
177		530.94		-97.593
178		523.197		29.4456
179		480.698		124.528
180		422.617		187.726
181		359.247		224.334
182		294.982		237.245
183		235.058		225.391
184		190.032		188.557
185		173.825		134.329
186		195.774		81.1321
187		251.661		53.5478
188		320.27		71.0037
189		369.454		135.71
190		370.268		227.315
191		312.454		308.897
192		212.728		342.941
193		110.203		310.04
194		49.7726		220.694
195		60.8461		113.33
196		141.879		38.4032
197		258.833		35.6211
198		358.934		115.204
199		393.432		252.325
200		338.562		397.406
201		204.873		497.076
202		31.1891		515.533
203		-132.833		446.441
204		-246.245		310.902
205		-289.044		144.504
206		-262.619		-18.3473
207		-180.884		-154.307
208		-59.4914		-251.296
209		89.3994		-301.715
210		253.967		-295.809
211		414.773		-221.959
212		539.739		-75.6075
213		588.797		128.179
214		529.21		347.567
215		355.131		519.906
216		100.499		581.804
217		-164.11		495.982
218		-352.813		272.18
219		-396.502		-29.5094
220		-271.706		-316.927
221		-12.4219		-499.355
222		301.55		-521.921
223		575.237		-385.535
224		734.516		-143.53
225		751.532		122.771
226		648.947		337.613
227		482.998		457.85
228		315.32		482.125
229		187.979		440.481
230		112.934		372.48
231		78.4597		306.709
232		65.8017		252.091
233		64.6154		203.484
234		77.9068		155.468
235		114.593		113.809
236		175.912		96.3156
237		245.892		122.074
238		293.576		195.885
239		287.32		298.429
240		213.516		389.867
241		88.5054		426.8
242		-44.5246		384.316
243		-133.753		270.986
244		-143.395		127.747
245		-71.9588		10.0038
246		45.9824		-38.5032
247		156.071		-6.71629
248		210.455		78.8209
249		190.652		167.747
250		115.336		211.145
251		29.4765		185.138
252		-18.9481		100.89
253		-2.11676		-3.37075
254		76.4233		-82.9919
255		187.303		-108.503
256		293.099		-76.7744
257		367.44		-6.89603
258		404.701		75.0857
259		415.83		152.353
260		414.429		224.358
261		403.072		300.879
262		369.399		387.662
263		295.197		473.827
264		173.148		530.492
265		20.4343		523.387
266		-120.695		433.399
267		-198.194		273.297
268		-174.784		89.8043
269		-49.096		-52.321
270		138.603		-97.7079
271		320.55		-25.9093
272		429.557		138.09
273		427.551		334.191
274		320.569		493.468
275		153.157		567.402
276		-14.2767		545.797
277		-133.068		455.369
278		-184.834		341.35
279		-182.575		243.122
280		-155.816		177.178
281		-129.807		135.706
282		-111.321		99.62
283		-88.8039		56.6406
284		-45.6068		12.5471
285		22.9835		-11.6014
286		100.517		5.42265
287		154.791		67.1731
288		155.73		150.736
289		95.5866		213.842
290		-0.926971		215.487
291		-83.8977		139.337
292		-100.654		6.75673
293		-22.3783		-128.8
294		139.064		-204.44
295		333.416		-176.697
296		492.926		-42.1588
297		561.695		160.498
298		519.018		367.852
299		385.657		519.382
300		211.084		581.516
301		49.4395		556.844
302		-62.8732		475.689
303		-117.102		376.591
304		-126.482		287.437
305		-110.749		217.273
306		-81.508		161.597
307		-37.5145		115.623
308		28.0228		85.4544
309		113.931		88.9329
310		201.354		144.826
311		255.703		256.846
312		241.026		402.925
313		139.63		537.816
314		-34.2058		609.654
315		-235.103		582.888
316		-403.096		455.771
317		-488.252		262.88
318		-471.221		60.8604
319		-369.523		-95.6213
320		-226.851		-175.684
321		-91.5428		-181.256
322		4.3214		-139.92
323		54.8119		-86.8323
324		75.3268		-46.368
325		87.6762		-23.302
326		104.899		-7.07559
327		124.873		15.246
328		135.694		46.5946
329		128.24		76.4204
330		106.762		88.3491
331		89.7049		73.7698
332		99.2355		41.9319
333		145.513		18.8257
334		215.805		33.8675
335		276.523		101.262
336		288.988		207.109
337		231.378		311.089
338		114.731		363.848
339		-16.9397		332.164
340		-104.294		218.84
341		-100.3		66.0991
342		5.841		-60.5684
343		180.905		-100.983
344		360.468		-27.4545
345		476.335		142.781
346		485.189		355.708
347		384.757		544.672
348		210.576		658.097
349		16.5549		677.298
350		-149.476		616.974
351		-262.566		510.551
352		-322.471		390.326
353		-342.274		274.051
354		-332.885		164.593
355		-294.149		60.7066
356		-218.245		-30.0033
357		-102.735		-86.0998
358		36.1497		-80.3085
359		160.318		3.08941
360		221.474		151.8
361		183.39		321.154
362		43.3968		447.06
363		-159.313		471.945
364		-354.922		371.54
365		-470.074		168.777
366		-458.512		-73.0688
367		-320.589		-275.6
368		-102.223		-377.156
369		125.936		-356.319
370		298.648		-236.479
371		380.927		-70.5907
372		376.498		84.9512
373		317.738		193.73
374		244.522		249.082
375		184.259		267.509
376		143.277		271.99
377		112.279		276.198
378		80.138		278.786
379		45.9703		269.848
380		21.3122		243.818
381		21.1516		209.104
382		50.105		187.013
383		93.6244		199.555
384		121.451		253.303
385		103.093		329.856
386		27.2247		390.451
387		-86.5815		394.282
388		-192.187		321.655
389		-237.146		189.169
390		-189.597		47.2715
391		-57.8399		-40.5606
392		108.598		-27.8097
393		238.552		90.7315
394		270.955		273.022
395		183.535		446.172
396		4.35454		537.957
397		-199.684		508.538
398		-351.895		367.359
399		-398.458		167.543
400		-329.354		-18.7138
401		-178.552		-131.309
402		-4.98451		-145.029
403		135.015		-74.2077
404		209.871		40.7929
405		219.701		156.377
406		186.95		245.164
407		138.212		302.753
408		88.5074		340.339
409		36.5872		369.763
410		-27.4257		391.194
411		-108.232		391.244
412		-195.021		352.43
413		-261.862		267.779
414		-279.385		151.07
415		-231.337		35.5886
416		-126.286		-39.0654
417		2.86752		-45.5289
418		112.268		17.4386
419		166.848		123.563
420		156.187		231.372
421		98.1091		304.037
422		28.105		326.448
423		-19.7842		310.687
424		-30.5215		287.235
425		-14.8826		286.86
426		-2.17111		322.948
427		-23.0067		383.657
428		-91.5268		437.888
429		-196.452		451.673
430		-305.59		406.193
431		-381.184		307.984
432		-397.941		186.26
433		-354.466		79.1319
434		-272.621		16.1623
435		-185.841		6.20918
436		-123.033		36.2686
437		-96.5692		80.9358
438		-100.09		116.593
439		-116.169		132.389
440		-128.577		132.467
441		-131.733		129.155
442		-132.043		132.035
443		-140.86		139.925
444		-163.837		140.871
445		-193.632		120.334
446		-211.048		72.7237
447		-194.799		9.10468
448		-134.884		-44.2927
449		-41.9813		-57.1997
450		53.159		-10.9897
451		111.339		89.1803
452		102.7		212.693
453		22.1722		314.261
454		-105.367		352.937
455		-233.524		310.742
456		-313.245		202.002
457		-313.78		68.6122
458		-236.213		-37.0625
459		-113.268		-74.1495
460		4.59113		-30.2885
461		70.5347		73.8104
462		60.6789		194.066
463		-17.0721		282.333
464		-128.099		306.54
465		-227.179		262.849
466		-278.008		175.036
467		-267.429		82.2139
468		-208.6		21.1265
469		-132.685		11.1679
470		-73.7774		48.4071
471		-54.3742		110.274
472		-77.7408		167.603
473		-129.67		197.753
474		-187.54		192.743
475		-231.411		159.458
476		-251.643		113.118
477		-249.947		68.3807
478		-234.579		33.0052
479		-213.336		7.00363
480		-188.811		-13.1923
481		-158.573		-28.8898
482		-119.77		-35.7461
483		-74.8741		-25.3224
484		-34.4574		9.04851
485		-14.5227		65.5211
486		-29.0559		130.474
487		-81.481		181.49
488		-159.802		196.051
489		-238.742		162.127
490		-288.768		85.4063
491		-288.305		-10.8553
492		-233.506		-93.982
493		-140.835		-134.695
494		-40.9711		-118.907
495		33.3268		-53.1424
496		59.9487		38.7703
497		35.101		125.98
498		-27.1631		182.944
499		-102.668		198.212
500		-167.889		176.151
501		-208.531		131.791
502		-222.313		82.2516
503		-215.72		39.4869
504		-197.608		7.69799
505		-173.848		-14.2298
506		-145.961		-27.8678
507		-113.915		-31.7261
508		-80.4598		-21.6423
509		-53.3944		5.14516
510		-43.4764		45.1231
511		-58.5863		86.5862
512		-97.4678		112.919
513		-147.204		110.2
514		-186.901		75.33
515		-196.653		19.9836
516		-167.64		-32.5943
517		-108.033		-57.2212
518		-41.1163		-38.5443
519		4.16708		20.8911
520		6.0201		100.585
521		-40.1787		170.463
522		-119.579		203.866
523		-204.454		188.947
524		-266.44		133.082
525		-288.421		58.426
526		-270.479		-8.77949
527		-227.534		-49.6147
528		-180.611		-59.0855
529		-146.744		-45.2923
530		-132.701		-22.6248
531		-135.161		-3.43404
532		-146.109		7.0563
533		-159.392		10.2434
534		-174.128		9.30484
535		-192.989		3.93057
536		-216.918		-11.3574
537		-240.31		-43.7403
538		-250.603		-95.4689
539		-233.571		-158.471
540		-181.891		-214.368
541		-102.059		-241.157
542		-14.9875		-223.822
543		51.2091		-163.381
544		73.4427		-79.0856
545		44.9693		-1.72318
546		-20.1654		39.3839
547		-92.3117		29.5798
548		-138.951		-24.2547
549		-138.984		-96.6864
550		-91.7191		-155.202
551		-16.3453		-174.588
552		57.5339		-147.329
553		103.374		-85.3468
554		108.565		-12.915
555		77.8519		45.0977
556		28.592		73.5804
557		-18.7784		71.4407
558		-49.6858		48.7554
559		-59.5289		19.5998
560		-51.9765		-4.8338
561		-33.8823		-19.2259
562		-10.7758		-22.6092
563		14.2087		-14.7233
564		37.9529		6.22562
565		54.2058		42.2261
566		53.0735		91.2855
567		24.8181		143.671
568		-33.522		182.207
569		-112.708		188.079
570		-191.245		150.071
571		-242.287		72.4141
572		-245.098		-23.6825
573		-195.565		-106.857
574		-110.017		-148.395
575		-19.6155		-135.063
576		42.6426		-75.4874
577		56.2377		3.44046
578		21.7652		68.6573
579		-40.3554		95.6577
580		-100.306		78.6348
581		-132.996		31.2493
582		-128.741		-21.8214
583		-95.4408		-57.6673
584		-51.9385		-65.414
585		-16.9268		-48.9417
586		0.170696		-21.5036
587		1.54881		3.75377
588		-3.90932		21.348
589		-8.97159		34.66
590		-14.0443		50.5361
591		-26.7276		71.2984
592		-55.0992		89.9019
593		-99.106		92.101
594		-146.057		65.0687
595		-174.111		7.56182
596		-162.941		-64.8702
597		-106.127		-123.859
598		-18.0957		-140.544
599		69.2417		-100.402
600		119.63		-12.6758
601		109.401		91.2786
602		39.6681		170.815
603		-62.7621		194.211
604		-156.759		153.376
605		-205.242		67.7104
606		-191.672		-24.8764
607		-126.732		-85.3322
608		-42.2519		-90.6807
609		24.1326		-42.9123
610		45.7454		34.1297
611		17.0063		107.396
612		-47.1754		149.836
613		-121.125		150.605
614		-181.219		116.089
615		-214.979		62.8042
616		-222.559		7.35715
617		-211.486		-40.5828
618		-189.22		-79.0005
619		-158.699		-108.973
620		-119.42		-129.123
621		-72.5451		-133.655
622		-25.6574		-115.814
623		7.14369		-74.5858
624		11.0603		-19.8704
625		-20.4861		28.2517
626		-79.2294		47.1474
627		-142.462		22.8119
628		-181.522		-41.4216
629		-174.748		-123.947
630		-118.372		-193.134
631		-29.4244		-221.184
632		61.3051		-196.786
633		123.004		-130.125
634		138.461		-47.6714
635		110.825		20.5133
636		60.3966		54.4357
637		13.5839		51.9919
638		-9.93763		27.5063
639		-5.28444		2.56759
640		17.8984		-5.36883
641		42.8282		9.51658
642		55.1955		41.1755
643		49.431		77.6874
644		28.6598		109.004
645		-0.49881		131.468
646		-34.0169		146.695
647		-72.9451		156.377
648		-120.529		157.31
649		-176.081		140.864
650		-230.269		98.0806
651		-266.031		27.5868
652		-265.881		-58.9313
653		-222.157		-138.173
654		-144.201		-184.259
655		-57.425		-181.359
656		6.5698		-133.157
657		24.5711		-63.366
658		-6.3884		-5.99336
659		-66.4636		10.4273
660		-121.727		-23.2251
661		-140.254		-91.8521
662		-107.563		-163.244
663		-33.5133		-203.699
664		52.8778		-194.252
665		117.966		-139.274
666		139.791		-63.2302
667		117.82		2.36313
668		71.4271		34.7155
669		28.4828		30.0317
670		10.5645		3.29916
671		22.7338		-21.5744
672		52.9483		-25.3411
673		80.6605		-3.13913
674		89.1741		34.6148
675		74.6163		69.9435
676		46.733		88.614
677		21.6531		88.2831
678		11.3614		78.9463
679		16.2842		75.855
680		25.2658		89.4673
681		22.6936		118.562
682		-1.69454		150.567
683		-46.2376		168.747
684		-97.8598		161.87
685		-139.214		130.582
686		-158.112		86.8675
687		-153.676		47.1197
688		-135.757		23.1307
689		-118.31		16.387
690		-110.991		18.8665
691		-114.18		19.4649
692		-120.332		11.7372
693		-120.493		-2.07564
694		-111.54		-13.3103
695		-99.2073		-13.9134
696		-94.633		-3.5307
697		-106.381		8.312
698		-133.041		6.94806
699		-161.553		-18.1744
700		-173.121		-65.3148
701		-153.915		-118.808
702		-104.423		-155.883
703		-41.5022		-158.802
704		8.95138		-125.629
705		25.4058		-73.1325
706		2.99655		-29.3807
707		-42.3831		-19.3508
708		-81.1295		-51.1219
709		-84.934		-110.36
710		-41.9398		-166.596
711		36.2047		-188.415
712		119.508		-159.68
713		174.566		-88.0786
714		181.445		-1.29403
715		143.518		67.2669
716		85.0089		95.5815
717		37.6444		83.8063
718		23.697		53.0727
719		44.5874		33.1592
720		81.0536		45.9457
721		104.474		93.7163
722		92.8457		158.516
723		42.5421		212.53
724		-30.4435		233.388
725		-100.02		215.75
726		-144.536		172.913
727		-157.958		127.996
728		-151.536		100.184
729		-145.434		94.1545
730		-155.629		98.6731
731		-183.984		94.8829
732		-217.362		69.0359
733		-236.167		21.8942
734		-227.079		-30.9377
735		-192.216		-68.0426
736		-149.035		-75.2453
737		-120.775		-54.8568
738		-122.896		-25.3943
739		-153.485		-11.5982
740		-193.467		-30.318
741		-216.836		-80.4181
742		-205.269		-142.722
743		-158.776		-190.326
744		-96.1483		-203.621
745		-44.6832		-181.51
746		-24.8254		-142.327
747		-38.36		-113.698
748		-66.9344		-116.882
749		-81.9435		-154.33
750		-60.4193		-207.495
751		1.84908		-246.275
752		87.2497		-244.953
753		165.051		-195.933
754		207.09		-113.789
755		201.868		-27.572
756		159.501		34.2174
757		105.173		57.6729
758		65.1015		49.0168
759		53.0254		29.0826
760		64.5579		20.4278
761		82.0155		34.7096
762		86.273		67.4203
763		68.338		102.503
764		33.8506		123.498
765		-1.81076		124.126
766		-24.4081		111.825
767		-30.7124		102.15
768		-31.049		107.665
769		-42.7257		128.376
770		-78.2093		149.958
771		-135.334		151.395
772		-195.899		117.87
773		-234.199		51.3073
774		-231.12		-28.0367
775		-185.833		-90.6026
776		-118.122		-112.678
777		-59.4007		-89.4164
778		-36.878		-38.3045
779		-59.3208		9.22906
780		-112.244		23.8473
781		-165.307		-6.54636
782		-188.046		-70.6913
783		-165.513		-140.132
784		-105.486		-184.23
785		-33.5922		-185.839
786		20.6904		-149.262
787		39.3187		-96.5334
788		23.9633		-54.555
789		-6.83773		-40.5431
790		-29.4633		-53.8544
791		-28.8592		-78.3501
792		-6.25522		-93.3348
793		23.1252		-86.3162
794		40.5005		-60.0653
795		35.5757		-30.0659
796		12.921		-14.2212
797		-11.0492		-21.2469
798		-18.5343		-44.8675
799		-1.81522		-67.3803
800		31.3198		-70.4992
801		61.6512		-46.9649
802		69.8931		-5.83413
803		48.6946		31.9937
804		8.06689		45.7152
805		-29.2893		27.2253
806		-40.449		-13.02
807		-15.5995		-50.5815
808		35.37		-59.843
809		86.9843		-28.0771
810		110.987		37.0419
811		90.9304		110.729
812		30.6052		163.449
813		-48.1983		175.624
814		-117.206		146.721
815		-155.98		94.0245
816		-161.205		42.1723
817		-146.147		9.62437
818		-131.151		-0.308067
819		-131.046		0.882812
820		-146.86		-4.1942
821		-166.448		-27.0356
822		-173.28		-65.7381
823		-157.797		-106.228
824		-124.294		-131.372
825		-89.0065		-132.343
826		-70.4013		-115.216
827		-77.3785		-98.5328
828		-102.532		-102.896
829		-124.786		-138.459
830		-120.355		-197.62
831		-76.0464		-257.423
832		2.562		-290.703
833		92.8387		-280.042
834		165.979		-226.867
835		201.199		-150.698
836		195.55		-78.9666
837		164.122		-33.0584
838		130.78		-18.2062
839		114.804		-22.5991
840		120.921		-25.8081
841		138.122		-11.4366
842		147.539		23.3136
843		134.504		66.4958
844		97.6945		99.0569
845		50.088		106.56
846		11.346		88.02
847		-3.77716		56.6858
848		5.87081		32.3624
849		27.1582		29.8264
850		40.4085		50.1488
851		31.0459		80.034
852		-1.65898		99.6081
853		-43.8745		94.1734
854		-75.0259		63.1179
855		-79.705		20.7775
856		-56.8509		-11.3492
857		-20.9026		-16.6768
858		5.82432		6.9218
859		5.3077		45.5087
860		-26.2477		76.3447
861		-76.2191		79.9834
862		-122.257		50.5028
863		-144.057		-1.68773
864		-133.685		-55.8088
865		-98.895		-91.9116
866		-57.9357		-101.017
867		-29.1002		-88.7256
868		-21.0368		-70.6923
869		-29.1287		-62.9759
870		-39.5574		-72.9942
871		-38.2198		-96.159
872		-19.0431		-119.732
873		13.12		-131.169
874		46.4029		-125.71
875		69.9133		-108.658
876		80.7001		-91.1622
877		85.3527		-82.3114
878		95.2593		-82.5933
879		118.484		-82.9223
880		153.359		-70.0209
881		187.942		-35.0207
882		205.99		19.9296
883		196.176		81.2373
884		159.155		130.236
