Compute Correlation 
 
0		-46.2394		-348.222
1		129.52		-354.444
2		294.436		-276.917
3		409.56		-128.282
4		446.266		61.5513
5		393.094		252.706
6		257.948		404.647
7		65.6919		484.84
8		-147.523		474.883
9		-341.436		373.34
10		-478.813		195.472
11		-531.598		-29.4652
12		-485.62		-262.77
13		-343.529		-462.224
14		-125.521		-589.022
15		132.713		-614.996
16		385.142		-528.947
17		583.367		-340.56
18		686.211		-80.48
19		668.932		204.181
20		529.776		458.497
21		291.938		630.934
22		0.0372581		684.626
23		-288.461		606.037
24		-515.125		408.801
25		-633.124		131.657
26		-617.615		-169.281
27		-471.515		-432.297
28		-225.227		-603.327
29		69.7337		-647.701
30		351.877		-557.685
31		563.135		-354.013
32		661.427		-81.0436
33		629.481		203.328
34		477.896		440.57
35		241.878		584.139
36		-27.3408		608.919
37		-274.145		515.464
38		-450.413		328.444
39		-524.988		90.0943
40		-488.936		-149.488
41		-355.917		-342.897
42		-158.06		-454.659
43		61.47		-467.517
44		257.575		-384.833
45		392.258		-228.879
46		441.896		-35.4922
47		401.375		153.839
48		284.257		300.808
49		118.915		378.142
50		-58.4195		374.655
51		-211.968		296.352
52		-313.903		163.496
53		-349.165		4.72711
54		-316.67		-149.844
55		-227.197		-274.572
56		-99.3007		-351.883
57		45.0625		-373.329
58		183.961		-338.877
59		297.647		-255.617
60		370.024		-136.716
61		390.289		-0.573914
62		355.107		130.64
63		270.711		233.96
64		153.553		290.296
65		28.1106		289.693
66		-78.48		235.148
67		-143.748		142.864
68		-156.559		38.0488
69		-120.307		-52.7015
70		-51.0129		-109.616
71		29.0949		-125.188
72		99.7881		-104.54
73		149.155		-60.7604
74		175.25		-7.70526
75		182.676		45.9579
76		176.376		98.3809
77		156.49		151.15
78		117.618		203.1
79		53.3647		245.397
80		-36.0974		261.577
81		-137.919		233.746
82		-226.244		152.592
83		-269.401		26.2586
84		-242.478		-117.134
85		-139.9		-235.98
86		18.1337		-289.158
87		189.269		-252.053
88		322.187		-127.702
89		374.445		52.1553
90		327.693		237.043
91		194.002		374.856
92		10.8774		429.12
93		-172.532		389.583
94		-311.938		272.537
95		-380.41		111.933
96		-372.628		-53.8414
97		-300.839		-193.476
98		-186.182		-288.333
99		-50.4331		-331.523
100		88.1541		-323.264
101		214.372		-266.648
102		313.428		-166.757
103		369.753		-33.1525
104		369.552		116.915
105		306.552		258.167
106		187.729		361.872
107		35.1133		404.378
108		-118.615		375.904
109		-239.715		285.102
110		-304.207		156.672
111		-304.982		22.7334
112		-252.015		-88.1216
113		-165.926		-159.008
114		-68.5906		-186.631
115		24.1987		-176.867
116		104.463		-137.465
117		168.101		-72.7806
118		208.753		16.0222
119		214.442		125.459
120		170.403		242.713
121		67.7396		342.538
122		-86.4982		391.87
123		-264.024		361.783
124		-419.462		241.92
125		-504.097		50.2068
126		-484.309		-168.048
127		-356.685		-352.964
128		-152.565		-450.466
129		70.8544		-431.959
130		249.707		-304.974
131		335.206		-110.297
132		309.131		92.9719
133		187.318		247.856
134		10.9009		316.987
135		-169.734		290.846
136		-310.927		185.22
137		-385.625		31.2625
138		-385.135		-135.972
139		-315.017		-285.477
140		-189.604		-393.054
141		-28.844		-440.83
142		141.882		-417.181
143		291.475		-319.568
144		385.99		-159.596
145		396.556		33.3577
146		310.587		214.435
147		141.184		333.625
148		-71.14		351.917
149		-267.633		257.054
150		-389.541		71.4468
151		-398.746		-152.599
152		-292.094		-349.685
153		-102.894		-463.889
154		111.485		-467.83
155		290.748		-370.339
156		392.555		-209.958
157		404.543		-37.8297
158		343.34		101.923
159		242.566		185.813
160		136.599		213.663
161		48.0041		201.1
162		-16.349		167.361
163		-60.5097		125.352
164		-90.5068		78.638
165		-107.278		25.5126
166		-105.544		-33.769
167		-78.6055		-91.9355
168		-25.3593		-135.321
169		45.4355		-149.832
170		116.689		-128.5
171		169.68		-75.8471
172		192.041		-6.27396
173		182.307		62.6395
174		148.468		117.884
175		101.644		155.161
176		49.1273		177.038
177		-8.54652		186.598
178		-74.3349		181.131
179		-147.161		150.738
180		-215.217		83.842
181		-255.406		-22.7557
182		-241.082		-155.121
183		-155.39		-280.813
184		-3.60678		-357.598
185		182.595		-349.591
186		352.628		-243.72
187		454.095		-58.4064
188		452.35		160.363
189		343.726		354.468
190		156.481		473.898
191		-60.6063		492.888
192		-256.238		415.289
193		-392.718		268.107
194		-453.465		87.8994
195		-440.34		-92.2958
196		-364.761		-249.297
197		-239.46		-367.979
198		-76.2734		-435.219
199		109.353		-436.072
200		291.679		-356.954
201		432.666		-195.566
202		489.414		28.1133
203		430.162		267.771
204		251.971		459.248
205		-9.54616		540.811
206		-285.652		477.594
207		-495.384		278.962
208		-574.404		-0.395561
209		-499.545		-277.833
210		-297.942		-472.112
211		-36.3663		-532.394
212		204.59		-454.517
213		360.003		-278.126
214		401.082		-67.1984
215		338.853		116.128
216		211.709		232.349
217		64.9203		271.797
218		-67.0331		247.712
219		-167.548		181.729
220		-233.487		91.2452
221		-264.963		-14.5373
222		-257.671		-129.397
223		-203.498		-241.309
224		-99.0531		-327.95
225		44.0521		-361.499
226		195.26		-321.442
227		312.247		-208.313
228		357.367		-49.5227
229		315.351		107.907
230		202.411		215.731
231		60.7167		245.318
232		-60.0892		200.086
233		-125.405		112.497
234		-130.529		26.625
235		-99.8446		-24.7749
236		-70.5672		-36.4416
237		-69.8098		-31.0862
238		-97.6663		-43.6642
239		-126.097		-97.936
240		-114.913		-188.459
241		-36.6431		-278.677
242		103.308		-317.309
243		262.869		-265.221
244		379.213		-118.834
245		397.241		82.6889
246		296.549		271.152
247		103.154		377.882
248		-120.187		363.311
249		-300.386		233.207
250		-384.125		34.0557
251		-357.113		-169.264
252		-244.057		-321.582
253		-91.1688		-397.187
254		58.1086		-402.401
255		180.751		-361.923
256		276.516		-298.651
257		355.677		-219.628
258		421.376		-116.328
259		458.793		21.5411
260		439.053		188.104
261		336.638		351.578
262		150.454		460.725
263		-84.4734		466.162
264		-303.357		346.117
265		-435.113		122.654
266		-432.35		-141.5
267		-293.036		-365.581
268		-62.6441		-482.683
269		184.704		-465.701
270		376.887		-334.984
271		471.239		-144.812
272		465.912		43.4439
273		391.131		187.182
274		287.038		274.612
275		181.482		318.441
276		80.1784		337.149
277		-26.2811		336.551
278		-144.345		303.595
279		-260.933		216.608
280		-340.268		65.845
281		-338.147		-128.715
282		-227.07		-314.776
283		-18.2598		-424.758
284		233.053		-405.687
285		444.554		-247.102
286		539.707		8.17419
287		481.204		277.562
288		288.439		471.465
289		29.8653		530.129
290		-206.498		447.058
291		-350.244		268.026
292		-375.653		66.8973
293		-306.312		-89.1075
294		-196.577		-167.312
295		-100.814		-177.588
296		-46.8684		-158.258
297		-27.0277		-149.207
298		-9.6423		-167.63
299		36.6146		-199.436
300		120.295		-210.088
301		219.254		-167.78
302		291.412		-65.2701
303		297.786		72.0927
304		224.762		196.65
305		93.2581		261.267
306		-50.0701		242.259
307		-154.544		150.226
308		-188.303		23.6135
309		-150.43		-90.7395
310		-66.9308		-159.043
311		25.7568		-172.7
312		99.5757		-145.841
313		145.422		-101.516
314		170.596		-56.0554
315		186.461		-11.3525
316		195.47		40.7232
317		186.748		105.585
318		143.687		174.175
319		58.9882		221.218
320		-52.8072		216.383
321		-154.668		142.986
322		-201.131		13.2623
323		-161.039		-130.015
324		-36.9508		-228.889
325		130.293		-236.318
326		276.148		-140.119
327		340.256		28.1213
328		294.28		204.881
329		155.582		322.39
330		-20.5291		338.863
331		-166.403		256.337
332		-232.814		117.415
333		-209.596		-17.0372
334		-126.313		-97.5079
335		-33.5854		-107.615
336		24.3446		-67.4858
337		31.1312		-18.1859
338		3.03494		3.34634
339		-24.5832		-15.2002
340		-20.4753		-56.5216
341		23.0297		-86.2035
342		85.2016		-74.9346
343		129.097		-17.4501
344		123.516		62.6357
345		62.1088		124.824
346		-31.2658		133.766
347		-113.984		78.9759
348		-146.608		-18.7417
349		-113.234		-117.669
350		-29.1777		-176.538
351		67.942		-175.119
352		138.476		-122.94
353		160.993		-51.796
354		141.466		3.20751
355		106.779		23.1331
356		86.8432		14.2818
357		95.8979		2.05399
358		123.823		13.5367
359		142.408		59.1243
360		122.939		123.957
361		54.9675		174.329
362		-44.5574		175.726
363		-137.275		112.542
364		-181.558		-1.45563
365		-153.164		-127.776
366		-57.4027		-220.558
367		73.4085		-247.416
368		195.436		-202.938
369		273.139		-108.344
370		292.945		1.4563
371		264.323		95.452
372		209.182		158.876
373		147.009		194.152
374		85.0699		211.406
375		19.3118		215.762
376		-55.3768		200.354
377		-132.968		150.228
378		-191.151		55.2313
379		-198.198		-76.1264
380		-129.491		-211.339
381		15.0676		-302.357
382		203.145		-305.369
383		377.664		-202.551
384		478.064		-14.373
385		465.639		204.823
386		340.737		386.964
387		143.261		477.056
388		-63.8638		454.146
389		-220.229		336.903
390		-290.286		172.086
391		-272.521		12.6269
392		-192.688		-103.324
393		-86.5785		-162.608
394		17.4682		-173.285
395		107.151		-151.43
396		182.789		-107.772
397		246.145		-42.4474
398		290.155		49.5093
399		297.233		166.436
400		248.108		290.697
401		136.21		389.182
402		-21.4998		425.247
403		-185		376.563
404		-304.658		249.112
405		-341.874		78.891
406		-286.58		-80.8826
407		-162.329		-181.469
408		-15.9493		-198.596
409		103.22		-140.809
410		164.013		-42.287
411		163.78		55.6113
412		123.809		124.009
413		73.402		157.09
414		32.1327		168.686
415		0.410828		177.937
416		-36.6451		193.199
417		-94.8992		204.148
418		-175.5		187.106
419		-257.788		120.718
420		-305.964		2.85095
421		-286.711		-141.633
422		-188.398		-267.751
423		-31.0557		-329.387
424		139.095		-300.922
425		268.573		-190.18
426		319.721		-35.6643
427		286.29		110.718
428		193.76		206.625
429		84.6988		236.246
430		-2.67682		212.975
431		-51.2865		167.343
432		-68.7869		127.682
433		-77.0314		104.624
434		-94.3375		87.9787
435		-121.387		57.2284
436		-139.296		-1.05984
437		-121.218		-79.6499
438		-50.8671		-149.559
439		62.9734		-173.062
440		185.023		-124.18
441		267.166		-5.41669
442		270.788		148.962
443		186.272		285.824
444		39.2286		356.281
445		-120.167		337.461
446		-239.542		241.873
447		-287.062		109.801
448		-263.131		-11.0192
449		-195.655		-87.61
450		-122.22		-114.359
451		-69.4214		-110.059
452		-40.6837		-102.033
453		-18.8917		-106.997
454		18.3432		-119.928
455		80.1226		-117.442
456		151.685		-73.8634
457		198.678		19.264
458		184.8		141.778
459		93.6005		249.086
460		-57.5988		291.046
461		-220.05		236.517
462		-332.256		91.0432
463		-346.505		-101.795
464		-250.495		-276.782
465		-73.5291		-373.752
466		125.662		-362.034
467		283.451		-251.413
468		356.467		-85.2266
469		335.938		80.055
470		245.775		198.272
471		127.173		249.042
472		18.7541		239.267
473		-57.6274		192.294
474		-99.5301		132.383
475		-116.012		73.4819
476		-115.803		17.6945
477		-99.5886		-37.5308
478		-61.0418		-89.6407
479		4.69702		-126.04
480		91.2979		-127.997
481		177.501		-81.5982
482		233.102		10.8551
483		232.472		126.502
484		168.533		228.525
485		59.0828		281.418
486		-58.8978		267.459
487		-144.997		195.638
488		-173.557		97.8956
489		-145.012		14.0742
490		-84.4032		-26.9767
491		-27.6942		-20.4925
492		-2.93233		13.6663
493		-16.0655		43.2443
494		-48.8239		42.1018
495		-69.7437		5.18771
496		-52.4825		-48.0014
497		8.28571		-83.4112
498		91.8774		-70.743
499		160.326		-0.592911
500		176.547		108.499
501		122.822		216.834
502		10.366		280.872
503		-124.65		272.589
504		-236.468		191.533
505		-288.842		64.201
506		-268.812		-68.2647
507		-189.235		-167.485
508		-80.1058		-211.861
509		25.922		-201.215
510		106.149		-151.343
511		152.878		-82.9394
512		169.901		-11.6138
513		164.234		55.8311
514		139.046		118.002
515		92.3631		171.945
516		22.0299		208.163
517		-66.7388		211.765
518		-156.801		169.868
519		-221.585		81.2602
520		-234.65		-37.6
521		-182.037		-154.633
522		-71.0451		-232.504
523		69.5781		-243.044
524		198.901		-179.045
525		278.697		-57.7838
526		287.316		85.4569
527		226.433		210.786
528		118.169		287.834
529		-5.27757		304.482
530		-114.077		267.14
531		-189.514		193.902
532		-225.923		105.12
533		-226.613		16.4961
534		-197.638		-62.4984
535		-143.795		-125.635
536		-69.0939		-165.884
537		19.3936		-174.184
538		107.899		-142.731
539		176.302		-71.1606
540		203.851		28.4204
541		178.148		131.608
542		102.782		208.557
543		-1.08273		235.204
544		-101.069		203.714
545		-165.78		126.765
546		-177.391		32.9991
547		-138.663		-44.7123
548		-70.8671		-82.8668
549		-3.54736		-76.4024
550		38.9503		-39.0172
551		47.6671		5.16129
552		31.1696		34.1872
553		8.98006		38.807
554		0.0244141		25.7474
555		12.1996		12.4831
556		38.3708		16.5711
557		60.6186		45.3022
558		60.2589		91.0535
559		28.2771		134.61
560		-29.2041		154.561
561		-93.0767		137.87
562		-139.719		86.3116
563		-151.401		15.8251
564		-123.55		-50.5013
565		-65.7373		-92.0411
566		3.42552		-98.1458
567		64.3368		-70.4296
568		103.26		-19.6662
569		115.088		40.1599
570		101.739		97.116
571		68.3261		143.447
572		20.0525		174.459
573		-38.2548		186.151
574		-100.27		174.189
575		-156.111		135.626
576		-192.61		72.5628
577		-197.017		-4.81895
578		-162.878		-78.5933
579		-94.9901		-127.89
580		-10.2551		-136.65
581		66.9754		-100.797
582		113.574		-31.0788
583		116.547		50.295
584		77.975		118.044
585		13.5471		153.466
586		-54.5657		150.856
587		-106.982		117.848
588		-133.996		69.9169
589		-136.963		22.2593
590		-124.107		-16.5605
591		-103.656		-46.0121
592		-78.5616		-69.8126
593		-45.9465		-89.7389
594		-1.52422		-101.243
595		53.8443		-94.038
596		109.82		-57.885
597		147.857		9.42739
598		148.404		96.6184
599		100.916		179.786
600		11.5099		230.318
601		-96.1865		226.767
602		-188.378		165.213
603		-233.942		62.8736
604		-217.172		-47.2643
605		-144.585		-128.86
606		-42.5536		-156.328
607		53.2657		-124.451
608		112.002		-49.3735
609		118.951		39.1277
610		79.5518		110.324
611		14.8172		144.362
612		-49.0323		138.281
613		-91.6366		104.272
614		-105.402		61.9456
615		-95.8353		28.8177
616		-76.2036		13.5181
617		-59.8923		14.2717
618		-54.3633		22.3742
619		-59.1937		28.0663
620		-68.2658		25.5422
621		-74.1472		14.89
622		-72.0247		0.747276
623		-61.3815		-10.8323
624		-45.2321		-15.2416
625		-28.1075		-10.5605
626		-14.3488		2.83075
627		-7.56767		23.2134
628		-10.9569		47.9044
629		-27.3643		72.6887
630		-58.2158		91.0647
631		-101.388		94.6224
632		-149.309		75.4222
633		-189.022		29.9447
634		-205.288		-37.1782
635		-186.19		-111.959
636		-129.048		-173.89
637		-43.7401		-202.471
638		48.7007		-185.074
639		122.359		-122.771
640		155.376		-31.2989
641		137.954		63.6662
642		76.0376		135.193
643		-10.8949		164.269
644		-96.9161		145.762
645		-158.578		89.0096
646		-182.053		13.2499
647		-165.972		-59.7135
648		-119.557		-112.394
649		-57.7112		-135.534
650		4.30927		-128.31
651		54.4611		-95.92
652		84.9863		-46.5317
653		91.7814		10.7308
654		73.5866		66.3486
655		32.1203		110.348
656		-26.879		132.951
657		-92.8597		126.702
658		-151.368		89.5718
659		-187.341		27.4398
660		-190.005		-45.8785
661		-157.358		-111.935
662		-97.9282		-153.501
663		-28.5143		-160.678
664		31.5516		-134.558
665		67.3352		-86.6116
666		73.4247		-33.9345
667		54.9981		7.59019
668		24.4558		29.1432
669		-4.67345		31.2712
670		-23.607		21.8147
671		-31.2364		10.7571
672		-32.9377		4.72463
673		-36.1787		3.89531
674		-45.3972		2.7402
675		-58.8848		-5.99296
676		-69.2842		-26.2845
677		-67.4022		-55.5261
678		-47.3415		-84.6622
679		-10.3147		-101.783
680		34.8116		-97.4346
681		74.5572		-69.1019
682		96.0431		-22.7506
683		91.9962		29.2121
684		63.3671		72.5459
685		18.5964		96.2445
686		-29.8694		95.9282
687		-70.0789		74.3862
688		-94.1421		39.4844
689		-99.6231		0.763626
690		-88.7018		-33.6152
691		-66.0652		-58.4272
692		-36.8569		-71.2714
693		-5.64069		-71.5053
694		23.4887		-59.2867
695		46.2763		-35.4586
696		58.075		-2.28905
697		54.6057		35.6131
698		33.5987		71.1253
699		-3.46845		95.7673
700		-50.5711		102.045
701		-97.9835		86.1259
702		-134.741		49.6788
703		-151.905		-0.0466309
704		-145.381		-52.0864
705		-117.194		-94.9443
706		-74.7384		-119.906
707		-28.3662		-123.285
708		11.7031		-106.892
709		37.9928		-76.8021
710		47.0934		-41.1169
711		39.5414		-7.72641
712		18.7164		17.1787
713		-10.4834		29.5984
714		-42.5646		27.5374
715		-71.7955		10.729
716		-92.3159		-19.2745
717		-98.5492		-58.6336
718		-86.2924		-100.84
719		-54.3506		-137.099
720		-6.04447		-157.919
721		50.3412		-155.754
722		102.855		-127.849
723		138.906		-78.0802
724		149.158		-16.7191
725		130.822		42.1539
726		88.935		84.882
727		34.9016		102.566
728		-17.2768		93.7762
729		-55.6465		64.5135
730		-73.9333		25.4504
731		-72.7057		-12.323
732		-57.7283		-41.1578
733		-36.4594		-58.6518
734		-14.4954		-66.7691
735		6.28142		-68.9874
736		27.0269		-67.177
737		49.2812		-60.0226
738		71.9871		-43.9432
739		90.0724		-16.0719
740		95.7066		22.3716
741		81.8897		64.3576
742		46.6746		98.3021
743		-4.2282		112.135
744		-58.0998		98.4904
745		-99.2398		58.5729
746		-114.805		2.70063
747		-99.9047		-52.9845
748		-59.6319		-92.3522
749		-7.07422		-105.149
750		41.7883		-90.3628
751		73.9963		-55.7387
752		83.7603		-13.9284
753		73.2451		22.7614
754		50.0836		46.5708
755		23.2315		55.7546
756		-0.637352		53.1634
757		-18.5865		43.2428
758		-30.4897		29.3758
759		-36.84		12.995
760		-37.0006		-5.35979
761		-29.1271		-24.1191
762		-11.7896		-39.4891
763		13.8553		-46.0654
764		42.9407		-39.1349
765		67.8308		-17.3808
766		80.8977		15.6804
767		77.7264		52.5681
768		58.9683		84.7276
769		29.7579		105.946
770		-3.00662		114.422
771		-33.952		112.364
772		-61.1511		103.454
773		-85.5393		89.8254
774		-108.238		70.5673
775		-127.584		42.9155
776		-138.047		5.58146
777		-132.221		-37.8116
778		-105.255		-77.6295
779		-59.3848		-100.84
780		-5.73769		-96.6674
781		38.3195		-62.6687
782		55.7313		-7.94343
783		37.4313		48.7467
784		-12.6045		85.7307
785		-77.7275		87.2916
786		-134.709		50.5638
787		-163.028		-12.9077
788		-153.157		-81.8612
789		-110.001		-134.169
790		-49.987		-155.732
791		6.65675		-145.336
792		44.592		-113.43
793		58.8998		-75.8615
794		55.09		-45.9808
795		44.1516		-29.1633
796		35.6884		-22.2284
797		32.9496		-17.5175
798		32.2635		-8.90492
799		26.7908		3.84854
800		12.0929		14.848
801		-9.91488		15.9067
802		-31.0133		2.0922
803		-40.7443		-24.3667
804		-32.1665		-54.1748
805		-5.99933		-75.1188
806		29.2279		-77.9985
807		61.1327		-61.0613
808		79.3401		-30.5353
809		80.0181		2.91857
810		66.6791		29.7145
811		47.0377		45.6449
812		27.9901		52.6205
813		11.8194		55.6613
814		-4.08799		58.2213
815		-23.9182		58.9432
816		-48.6869		52.0833
817		-73.2723		31.5835
818		-87.496		-3.5827
819		-81.1516		-46.1976
820		-50.3949		-82.153
821		-1.79044		-96.2988
822		48.7236		-80.0333
823		82.0417		-36.6035
824		84.4761		19.016
825		54.4079		66.0707
826		3.45225		87.1115
827		-48.6792		75.7417
828		-83.1752		39.1016
829		-90.4801		-6.16665
830		-73.8187		-42.3653
831		-46.2236		-59.2008
832		-22.8182		-57.908
833		-12.5765		-49.0515
834		-13.9749		-45.42
835		-16.7703		-54.0423
836		-8.77888		-71.7607
837		16.1962		-86.8021
838		53.7412		-85.4713
839		90.1463		-60.2866
840		109.046		-15.076
841		99.8854		35.8086
842		63.7219		73.8454
843		13.3052		84.9989
844		-32.5883		66.2385
845		-57.611		26.6841
846		-54.7983		-16.9895
847		-28.6977		-48.3074
848		7.98465		-57.875
849		41.0275		-46.1061
850		60.9333		-20.962
851		65.6667		7.4329
852		59.0279		31.9629
853		46.3296		50.66
854		30.4162		65.0741
855		10.5469		76.5023
856		-15.3449		82.9582
857		-46.7683		79.1702
858		-78.0525		59.8712
859		-99.1772		24.4077
860		-100.141		-20.3754
861		-76.6512		-61.2381
862		-33.8469		-83.6704
863		14.4352		-78.6584
864		50.9831		-47.5284
865		62.7029		-2.09107
866		46.5177		40.2938
867		10.5905		64.4088
868		-29.8203		63.7739
869		-59.7553		42.8201
870		-71.3795		13.6379
871		-66.7592		-10.8479
872		-55.3221		-23.5665
873		-47.5914		-26.3121
874		-48.7542		-27.6041
875		-55.6206		-36.759
876		-58.6059		-57.5861
877		-47.5714		-85.2717
878		-18.2468		-108.225
879		24.3427		-113.925
