Compute Correlation 
 
0		-307.252		503.5
1		-466.149		266.953
2		-495.465		-9.69266
3		-397.866		-261.776
4		-204.16		-438.945
5		40.6828		-513.953
6		290.984		-481.556
7		507.804		-351.661
8		659.639		-142.926
9		720.234		118.967
10		668.92		398.685
11		496.65		648.815
12		216.079		813.367
13		-130.313		840.158
14		-471.218		699.559
15		-720.55		402.069
16		-802.335		5.48242
17		-678.06		-394.459
18		-365.348		-689.407
19		60.944		-791.946
20		487.56		-665.249
21		796.01		-337.51
22		898.673		104.611
23		765.274		541.378
24		431.055		855.248
25		-15.1012		964.074
26		-457.401		842.068
27		-785.274		523.46
28		-921.19		89.9309
29		-837.393		-352.607
30		-559.113		-700.57
31		-155.667		-876.159
32		277.048		-843.456
33		638.516		-615.069
34		846.026		-248.746
35		853.623		165.546
36		663.685		526.267
37		327.658		745
38		-65.7005		769.537
39		-413.003		598.729
40		-624.42		283.707
41		-649.129		-86.255
42		-489.624		-409.808
43		-199.64		-603.504
44		133.95		-625.736
45		419.09		-486.573
46		586.532		-240.574
47		608.319		34.0277
48		501.21		261.591
49		315.459		391.234
50		114.663		407.946
51		-45.105		330.622
52		-129.849		200.128
53		-132.495		63.4503
54		-68.9658		-40.0886
55		30.7635		-87.0139
56		132.484		-71.9287
57		205.793		-5.58427
58		229.789		89.1175
59		196.993		182.175
60		115.754		242.788
61		10.2059		247.194
62		-83.9762		187.081
63		-128.97		75.7244
64		-97.9855		-51.8402
65		12.0238		-147.117
66		173.885		-164.098
67		334.599		-77.9567
68		431.261		101.014
69		413.971		325.235
70		267.176		522.358
71		20.2898		619.33
72		-258.008		569.46
73		-480.981		371.846
74		-573.193		75.0045
75		-496.99		-237.367
76		-266.038		-473.377
77		58.9691		-562.565
78		390.227		-477.349
79		640.321		-239.257
80		747.11		90.7352
81		688.046		432.474
82		481.085		709.154
83		174.777		864.653
84		-166.635		871.982
85		-477.379		733.532
86		-700.476		476.583
87		-794.398		147.49
88		-738.051		-194.103
89		-535.502		-482.14
90		-219.585		-654.097
91		148.758		-664.48
92		488.788		-499.215
93		716.99		-185.549
94		769.593		208.351
95		623.559		587.09
96		307.745		852.842
97		-101.495		933.914
98		-500.472		807.119
99		-787.984		505.539
100		-894.637		108.493
101		-801.544		-282.736
102		-542.479		-574.573
103		-190.023		-705.916
104		167.921		-660.416
105		452.239		-464.261
106		609.668		-173.041
107		619.421		145.588
108		490.761		427.057
109		255.858		619.641
110		-37.8424		689.301
111		-333.957		622.291
112		-573.333		427.7
113		-702.4		139.61
114		-684.739		-184.066
115		-513.682		-469.603
116		-220.703		-643.642
117		126.204		-654.492
118		437.209		-491.433
119		625.964		-193.537
120		637.663		157.745
121		469.207		461.912
122		172.68		631.453
123		-160.561		620.966
124		-430.099		442.098
125		-559.848		158.313
126		-522.013		-138.451
127		-342.914		-359.982
128		-89.4353		-450.342
129		157.371		-400.405
130		330.427		-244.362
131		395.832		-41.747
132		357.324		146.188
133		246.932		275.925
134		108.179		330.554
135		-20.0582		317.264
136		-113.069		257.601
137		-161.711		176.633
138		-168.311		95.7683
139		-141.444		30.5133
140		-92.8125		-8.81836
141		-36.578		-16.553
142		10.9633		6.95279
143		33.9432		52.8827
144		22.412		103.404
145		-21.4407		135.69
146		-80.4398		130.668
147		-126.393		83.2068
148		-131.085		8.28339
149		-80.2907		-61.528
150		15.9447		-88.0907
151		122.918		-45.0853
152		192.831		67.0614
153		184.548		216.461
154		83.1824		348.962
155		-89.7163		408.576
156		-280.937		360.843
157		-424.327		208.876
158		-465.963		-5.31342
159		-385.186		-215.185
160		-202.663		-353.779
161		27.5164		-377.436
162		237.737		-279.633
163		369.899		-90.2886
164		392.343		137.496
165		305.162		346.242
166		134.289		490.256
167		-80.5109		543.843
168		-297.192		501.163
169		-478.264		371.519
170		-592.822		174.932
171		-617.091		-59.2947
172		-537.241		-292.184
173		-355.64		-476.789
174		-97.6892		-565.671
175		186.223		-524.431
176		428.346		-346.898
177		561.246		-64.5639
178		540.331		256.308
179		362.158		531.698
180		69.7122		686.074
181		-259.2		677.942
182		-537.009		514.062
183		-695.186		246.141
184		-705.234		-48.6592
185		-583.762		-295
186		-380.78		-442.973
187		-157.755		-478.953
188		34.1791		-421.117
189		166.745		-304.287
190		234.366		-163.039
191		244.639		-21.4085
192		207.043		107.414
193		127.113		214.17
194		8.90179		286.186
195		-137.256		305.98
196		-288.344		257.896
197		-409.711		139.17
198		-465.16		-31.671
199		-431.913		-215.461
200		-312.652		-363.721
201		-137.606		-436.247
202		45.4681		-416.622
203		189.186		-317.872
204		263.783		-175.424
205		265.476		-31.0594
206		212.43		83.7913
207		131.53		157.033
208		43.9108		193.395
209		-42.4863		203.292
210		-129.611		190.836
211		-218.211		149.114
212		-296.92		66.2567
213		-339.795		-61.0658
214		-315.808		-215.31
215		-206.475		-355.849
216		-22.1086		-430.807
217		193.42		-398.952
218		374.355		-251.303
219		457.612		-20.8799
220		409.394		225.85
221		241.005		413.383
222		5.64697		486.784
223		-222.915		432.791
224		-380.023		282.617
225		-434.241		95.5768
226		-395.006		-67.974
227		-301.387		-170.912
228		-199.037		-209.45
229		-118.005		-205.54
230		-62.7766		-187.503
231		-18.6201		-170.729
232		30.9565		-149.559
233		86.9472		-104.6
234		128.734		-20.5688
235		123.452		96.5065
236		46.0094		213.851
237		-101.627		282.9
238		-283.54		261.969
239		-440.688		138.948
240		-515.212		-58.4291
241		-476.451		-271.086
242		-335.459		-432.562
243		-140.438		-496.919
244		44.7798		-456.92
245		168.434		-343.799
246		211.008		-209.414
247		188.365		-100.543
248		137.505		-38.7062
249		93.598		-15.3903
250		71.1458		-3.92385
251		59.229		19.7897
252		32.6264		59.9568
253		-28.3284		96.932
254		-121.055		98.7546
255		-217.17		41.4897
256		-274.576		-73.3353
257		-258.887		-214.369
258		-162.614		-332.151
259		-11.631		-381.128
260		144.736		-340.593
261		254.913		-223.846
262		286.687		-71.2409
263		238.483		68.6344
264		135.514		159.457
265		14.2768		188.932
266		-95.2125		166.912
267		-179.605		112.867
268		-240.204		41.4958
269		-281.726		-44.3221
270		-300.444		-149.118
271		-280.542		-272.408
272		-202.313		-397.169
273		-58.0963		-488.236
274		133.763		-504.116
275		326.742		-417.573
276		459.717		-234.272
277		481.566		1.57153
278		375.279		219.622
279		169.136		349.799
280		-71.7269		350.79
281		-270.435		227.113
282		-368.782		26.3816
283		-348.75		-181.946
284		-235.358		-335.954
285		-80.4763		-404.633
286		63.3801		-394.6
287		165.67		-338.358
288		225.886		-271.848
289		264.338		-214.082
290		302.335		-159.826
291		343.922		-88.5747
292		370.029		16.1887
293		348.642		149.23
294		255.424		278.26
295		93.1176		355.178
296		-101.642		338.783
297		-268.991		217.331
298		-349.691		19.0012
299		-310.874		-195.747
300		-161.263		-356.86
301		51.342		-411.937
302		258.831		-345.607
303		398.68		-182.857
304		435.169		23.7827
305		367.401		215.816
306		222.782		348.562
307		41.6699		401.033
308		-137.893		374.065
309		-288.336		281.157
310		-392.096		139.423
311		-436.551		-33.7839
312		-410.755		-218.061
313		-308.235		-385.434
314		-135.072		-500.359
315		82.3598		-527.854
316		296.929		-447.829
317		451.362		-268.698
318		497.573		-31.9226
319		416.69		197.308
320		229.93		351.364
321		-6.10498		384.995
322		-219.026		292.655
323		-347.198		110.171
324		-361.646		-100.289
325		-273.793		-275.158
326		-126.219		-373.014
327		28.3798		-386.437
328		149.583		-337.893
329		222.609		-263.235
330		257.419		-192.071
331		275.836		-135.002
332		294.721		-83.3715
333		314.635		-20.2411
334		319.728		64.5099
335		288.211		163.777
336		207.069		253.281
337		82.6779		301.922
338		-58.4751		286.744
339		-179.306		204.608
340		-246.869		74.7284
341		-244.927		-68.7728
342		-178.581		-190.047
343		-69.7172		-263.735
344		53.2638		-280.792
345		165.568		-246.512
346		251.177		-173.663
347		301.903		-75.7777
348		313.053		35.3839
349		280.241		147.658
350		200.626		244.608
351		78.3574		304.49
352		-69.5294		304.954
353		-211.783		232.651
354		-309.336		93.1178
355		-328.365		-85.0152
356		-254.768		-255.453
357		-103.026		-368.674
358		85.6961		-389.965
359		256.62		-313.249
360		360.69		-164.252
361		372.091		8.78089
362		296.528		153.026
363		167.006		229.981
364		29.4712		227.451
365		-74.9373		160.198
366		-123.337		60.1853
367		-115.175		-38.1446
368		-66.6901		-110.508
369		0.0614624		-148.196
370		67.5021		-155.312
371		127.363		-141.015
372		178.853		-111.958
373		222.733		-69.1639
374		255.806		-10.4517
375		269.558		63.9178
376		253.845		146.502
377		203.334		222.274
378		122.67		273.303
379		27.0459		286.194
380		-62.5952		258.285
381		-127.464		199.182
382		-157.948		126.737
383		-156.252		59.5281
384		-133.537		9.7124
385		-103.376		-20.206
386		-75.201		-35.4164
387		-51.22		-43.2249
388		-28.1774		-47.3439
389		-2.53653		-45.4475
390		24.2849		-31.4075
391		44.0075		-0.861866
392		44.4049		43.2263
393		15.7783		88.51
394		-42.3743		116.394
395		-118.185		109.307
396		-189.794		58.7928
397		-232.597		-29.4618
398		-228.312		-136.149
399		-171.934		-234.312
400		-73.72		-298.199
401		44.3116		-311.325
402		155.498		-270.755
403		236.151		-186.604
404		270.922		-77.9091
405		254.779		32.7845
406		192.208		123.965
407		95.2723		177.981
408		-18.1537		182.694
409		-125.821		133.131
410		-203.201		33.6974
411		-227.458		-99.7871
412		-183.497		-240.099
413		-70.5515		-352.53
414		93.6101		-403.119
415		273.816		-369.329
416		425.222		-249.364
417		506.077		-65.9129
418		491.348		138.251
419		381.967		312.209
420		205.714		412.536
421		8.89647		416.932
422		-158.297		330.693
423		-257.305		183.708
424		-271.86		19.4415
425		-210.272		-119.5
426		-99.4037		-203.63
427		26.3242		-222.545
428		136.011		-183.552
429		209.349		-105.096
430		238.144		-8.88684
431		223.558		85.7561
432		172.048		163.855
433		92.7786		213.985
434		-2.51312		227.19
435		-98.3868		197.733
436		-175.702		126.055
437		-214.667		22.2154
438		-200.87		-93.045
439		-131.968		-191.759
440		-21.5022		-246.63
441		102.969		-240.69
442		207.777		-174.512
443		264.452		-67.3318
444		259.833		49.0557
445		200.573		141.475
446		109.973		187.028
447		18.5162		180.337
448		-47.6925		133.48
449		-75.5839		69.1261
450		-67.4504		10.4062
451		-36.6742		-27.7073
452		0.319412		-41.9011
453		31.5699		-38.1156
454		53.031		-25.4578
455		66.9697		-10.2464
456		77.1536		6.55861
457		84.2538		27.5771
458		84.4204		54.5896
459		71.8358		84.6944
460		43.481		109.806
461		2.90491		120.116
462		-39.7162		109.604
463		-71.749		80.2326
464		-84.4089		42.0287
465		-77.6194		8.50928
466		-60.3848		-10.3104
467		-46.0312		-13.4827
468		-44.6031		-9.91359
469		-56.5329		-13.4893
470		-71.3209		-34.8063
471		-72.4559		-73.8656
472		-46.4513		-117.911
473		8.53996		-146.117
474		79.182		-139.306
475		140.789		-90.0965
476		167.2		-8.43199
477		142.293		80.5032
478		67.8004		145.337
479		-36.1953		160.573
480		-138.246		116.353
481		-206.784		21.8643
482		-220.686		-98.566
483		-175.038		-214.336
484		-80.5724		-298.195
485		41.673		-332.85
486		167.228		-312.941
487		273.543		-243.354
488		342.643		-136.298
489		361.987		-9.19907
490		325.453		116.238
491		235.643		215.257
492		106.762		263.532
493		-34.3611		243.627
494		-151.792		152.762
495		-209.41		8.22305
496		-183.08		-153.442
497		-71.3575		-285.111
498		100.481		-343.712
499		286.088		-305.505
500		432.266		-175.652
501		496.649		12.3975
502		461.831		207.927
503		340.25		360.099
504		168.155		434.268
505		-8.31837		421.134
506		-148.73		335.835
507		-229.233		208.739
508		-245.311		73.0572
509		-207.089		-44.9861
510		-131.25		-129.977
511		-34.3993		-175.415
512		69.2293		-179.391
513		166.155		-141.836
514		241.212		-65.4657
515		277.803		40.5591
516		262.361		157.694
517		191.3		259.329
518		76.4152		317.62
519		-55.3374		313.614
520		-169.11		245.918
521		-234.154		133.133
522		-235.297		8.01994
523		-178.432		-94.5311
524		-87.2544		-150.396
525		7.26474		-154.053
526		79.5577		-117.93
527		118.267		-64.1217
528		127.34		-13.1198
529		119.763		24.5778
530		108.078		50.0421
531		97.2723		70.736
532		83.8329		92.4244
533		60.935		113.458
534		26.0135		125.031
535		-14.4406		117.225
536		-46.3087		86.9579
537		-55.0956		42.606
538		-34.873		1.85274
539		6.59964		-16.6866
540		50.189		-3.62225
541		74.5577		35.173
542		67.4772		80.5948
543		32.9322		109.938
544		-10.3831		109.217
545		-38.9554		81.3648
546		-37.713		45.3708
547		-9.39815		26.206
548		25.5069		40.5581
549		38.9462		86.0531
550		10.6577		140.203
551		-59.2956		170.375
552		-147.794		150.182
553		-217.821		74.0382
554		-235.44		-37.8109
555		-186.285		-146.776
556		-83.3054		-212.605
557		38.1905		-211.213
558		135.789		-145.031
559		178.033		-41.0839
560		156.613		61.8157
561		87.3036		130.019
562		0.135101		147.787
563		-75.3501		120.165
564		-121.933		65.856
565		-138.104		5.1505
566		-132.559		-49.8992
567		-114.382		-97.8676
568		-85.5651		-142.543
569		-40.6351		-184.136
570		26.537		-213.538
571		113.367		-214.11
572		203.182		-170.769
573		268.374		-81.3511
574		281.688		36.7527
575		230.277		149.619
576		124.905		219.301
577		-1.33882		220.28
578		-105.199		151.739
579		-150.975		39.1701
580		-125.374		-75.893
581		-42.3183		-153.289
582		64.4624		-170.424
583		157.103		-129.633
584		209.611		-53.7354
585		216.497		27.1224
586		190.513		90.0355
587		151.902		127.785
588		115.827		147.473
589		85.1543		161.281
590		52.2512		175.584
591		7.99476		185.281
592		-48.0367		176.849
593		-102.933		138.299
594		-134.852		69.9294
595		-124.544		-11.0229
596		-67.7006		-75.4544
597		19.1484		-95.3861
598		103.269		-58.3605
599		149.399		24.4913
600		135.952		121.475
601		65.5881		193.553
602		-35.3643		211.529
603		-128.562		168.797
604		-180.69		83.4645
605		-177.563		-10.9805
606		-128.6		-81.5452
607		-59.9986		-110.154
608		-0.66333		-99.699
609		31.6505		-69.3761
610		37.0874		-42.5388
611		30.5424		-33.8885
612		31.1298		-42.6866
613		50.4662		-55.0333
614		86.1369		-53.2413
615		123.488		-26.6824
616		144.185		21.9179
617		136.4		77.8831
618		100.952		122.415
619		50.3275		142.136
620		1.64497		135.009
621		-32.0695		109.686
622		-47.2788		79.2504
623		-49.2578		53.4878
624		-46.3299		34.3822
625		-43.0166		17.3763
626		-36.6318		-2.74007
627		-19.6358		-25.3616
628		13.5942		-41.5336
629		59.8398		-37.5737
630		104.676		-3.31575
631		127		59.602
632		108.872		134.513
633		45.791		194.271
634		-48.1945		212.186
635		-143.88		174.349
636		-207.884		87.2521
637		-216.389		-23.3405
638		-165.251		-122.125
639		-71.7437		-178.24
640		32.8025		-177.125
641		115.872		-125.022
642		156.123		-44.5387
643		149.82		36.0247
644		109.119		94.1988
645		54.0452		120.454
646		2.77735		118.34
647		-34.8988		98.8058
648		-58.3849		72.6145
649		-72.0692		45.1494
650		-79.467		16.0291
651		-79.5258		-17.0997
652		-67.2124		-53.5939
653		-37.7263		-87.1416
654		8.53493		-107.266
655		63.5566		-104.263
656		113.593		-74.7164
657		144.582		-24.3362
658		148.249		33.6442
659		125.625		83.7955
660		86.1649		114.771
661		43.0401		123.3
662		7.24286		114.011
663		-16.3534		95.5393
664		-29.0988		75.39
665		-35.2332		56.5768
666		-37.4779		37.8283
667		-34.4581		16.9492
668		-21.6757		-5.03264
669		4.47537		-21.8341
670		42.1225		-23.7027
671		81.7935		-2.4494
672		108.591		42.8984
673		108.137		103.112
674		73.5524		160.561
675		9.89882		195.491
676		-66.4382		194.078
677		-133.513		154.474
678		-172.253		87.8969
679		-173.732		14.1697
680		-141.981		-46.2216
681		-91.2538		-79.8574
682		-39.2807		-84.4464
683		0.0821991		-67.6931
684		21.3849		-42.0358
685		27.5081		-18.2423
686		25.6445		-1.14565
687		21.9556		10.6008
688		17.9776		21.1558
689		10.6533		32.8604
690		-4.29093		43.2538
691		-27.8175		45.595
692		-54.7508		32.6902
693		-74.5593		1.89104
694		-75.6584		-41.6178
695		-51.1599		-85.3122
696		-3.10519		-113.717
697		57.1239		-114.754
698		112.646		-85.0476
699		147.497		-31.6325
700		152.697		30.7423
701		129.229		85.4145
702		86.7832		119.991
703		39.1176		130.166
704		-1.54494		119.728
705		-28.4654		97.2712
706		-41.1295		71.6296
707		-43.0149		48.4575
708		-38.1174		29.4688
709		-28.4154		14.2138
710		-13.6695		2.84113
711		6.57736		-2.17542
712		30.3213		3.37186
713		51.7267		22.7221
714		62.3233		54.9319
715		54.5164		93.2357
716		25.7033		126.347
717		-19.2815		142.499
718		-68.978		134.448
719		-109.349		102.976
720		-129.33		57.0013
721		-125.262		10.0491
722		-102.057		-25.337
723		-70.4928		-42.5909
724		-42.0035		-43.1302
725		-23.5573		-34.4783
726		-15.1768		-25.5877
727		-11.2495		-21.8673
728		-4.79595		-22.5441
729		7.70063		-21.7276
730		23.595		-12.5509
731		35.0704		7.91054
732		33.3918		35.7162
733		14.1945		60.8975
734		-19.0581		71.8407
735		-55.4561		61.0906
736		-80.9182		29.6076
737		-84.3891		-12.7935
738		-62.9459		-51.2013
739		-23.2941		-71.831
740		21.0775		-67.7426
741		55.6638		-41.3578
742		70.8089		-2.72133
743		64.907		35.4114
744		43.6499		63.0649
745		16.1019		76.397
746		-10.0479		77.5102
747		-31.4638		71.3003
748		-48.9639		61.4993
749		-64.6431		48.3745
750		-78.388		29.4395
751		-86.1913		2.65237
752		-81.58		-30.0034
753		-59.5756		-61.0196
754		-20.9642		-79.3161
755		25.7642		-75.0509
756		66.3623		-44.9379
757		86.1579		4.81231
758		76.3747		59.7704
759		38.3292		102.527
760		-16.6731		119.569
761		-71.8246		106.551
762		-111.571		69.503
763		-127.423		21.5143
764		-120.165		-23.2891
765		-97.7186		-55.4071
766		-70.1572		-72.5753
767		-44.729		-78.4017
768		-23.4955		-78.2992
769		-4.55075		-75.3657
770		14.3493		-68.7025
771		32.2896		-55.0742
772		44.2401		-32.7208
773		43.4668		-4.75749
774		26.0325		20.264
775		-5.3104		31.451
776		-40.404		20.9553
777		-65.0634		-11.2225
778		-67.1798		-55.8156
779		-42.5291		-97.3989
780		2.78429		-120.76
781		54.6789		-117.459
782		97.2012		-89.2898
783		119.362		-46.9016
784		119.288		-4.35649
785		103.703		27.5042
786		83.2308		45.4345
787		66.2329		53.741
788		54.5905		60.1089
789		43.6916		69.8417
790		26.491		81.8987
791		-0.802994		89.0619
792		-34.7945		82.2162
793		-65.1572		56.361
794		-79.1928		14.9261
795		-68.3833		-30.1992
796		-33.4454		-63.2269
797		14.8941		-71.4398
798		59.965		-51.0623
799		86.0964		-9.07401
800		85.0135		39.8856
801		58.6275		79.8518
802		17.1214		99.8801
803		-26.3143		97.3714
804		-61.1421		77.1451
805		-82.6651		47.3589
806		-91.5196		14.952
807		-90.4585		-16.7596
808		-80.902		-47.2586
809		-61.6637		-75.808
810		-30.7093		-98.6705
811		11.2637		-108.85
812		57.982		-99.0362
813		97.8167		-66.2942
814		117.679		-15.7124
815		108.958		39.5406
816		72.4253		82.458
817		19.238		99.0518
818		-32.9144		84.5201
819		-66.9522		45.5389
820		-73.4408		-2.64003
821		-54.0669		-42.9534
822		-19.8903		-63.8168
823		14.6117		-63.3476
824		38.5364		-48.5751
825		48.9741		-30.357
826		50.7305		-16.9591
827		51.8402		-9.85606
828		57.6442		-3.95753
829		66.917		8.07323
830		72.2977		30.0562
831		64.792		58.5418
832		39.7719		83.3877
833		0.993568		92.5385
834		-39.8004		78.4935
835		-67.7229		42.9386
836		-71.6163		-3.05647
837		-49.4103		-43.5216
838		-9.20174		-64.5139
839		34.4427		-59.9963
840		66.9782		-33.7957
841		79.8177		3.09412
842		72.8365		38.1567
843		52.5531		62.8174
844		27.4597		74.9485
845		3.39304		77.4861
846		-18.4378		74.4934
847		-39.9076		67.3862
848		-62.2347		53.7789
849		-82.7019		29.6881
850		-94.2128		-6.30948
851		-88.3326		-49.687
852		-60.2897		-89.7644
853		-13.0721		-113.346
854		41.9668		-110.613
855		88.783		-80.25
856		113.063		-30.9931
857		108.292		21.4409
858		78.4422		60.6877
859		35.9623		76.28
860		-3.86411		67.265
861		-29.3065		41.3209
862		-36.1966		10.1496
863		-27.8442		-16.2167
864		-11.4058		-33.196
865		6.90143		-41.7918
866		24.9044		-45.5082
867		44.2483		-46.285
868		67.2544		-42.1423
869		93.0605		-28.1015
870		115.697		0.0957184
871		125.635		41.7239
872		114.283		88.9984
873		79.0941		128.809
874		26.3758		147.783
875		-29.999		138.295
876		-73.6859		102.346
877		-92.435		51.2492
878		-82.9665		1.13355
879		-51.8312		-33.5837
880		-11.9561		-45.6239
881		23.2662		-36.6808
882		45.3539		-15.0736
