Compute Correlation 
 
0		181.693		36.4069
1		161.028		92.0063
2		103.721		143.993
3		13.6848		162.349
4		-82.0776		125.407
5		-144.884		35.0455
6		-143.701		-79.9316
7		-72.2452		-174.628
8		45.2574		-208.026
9		162.988		-162.173
10		232.924		-51.0388
11		225.286		85.2247
12		140.28		197.533
13		6.07741		247.976
14		-135.006		223.223
15		-244.468		135.686
16		-300.735		13.524
17		-301.871		-113.864
18		-258.517		-226.625
19		-183.004		-316.409
20		-82.1247		-380.172
21		41.9251		-411.572
22		183.605		-397.076
23		325.188		-320.81
24		434.357		-176.335
25		472.205		21.4917
26		409.431		232.705
27		243.052		400.994
28		4.38345		472.967
29		-247.396		419.705
30		-444.759		250.268
31		-536.3		10.0418
32		-505.067		-236.004
33		-372.375		-427.683
34		-185.702		-530.379
35		2.94923		-542.963
36		157.411		-490.183
37		266.758		-404.758
38		340.265		-309.35
39		392.219		-208.073
40		426.18		-91.5156
41		428.29		48.4524
42		373.918		203.392
43		244.273		342.246
44		43.7532		419.291
45		-192.109		393.191
46		-403.676		247.995
47		-527.139		5.41068
48		-518.654		-278.272
49		-371.718		-529.842
50		-120.161		-683.691
51		173.99		-702.605
52		441.561		-586.627
53		626.66		-368.016
54		698.559		-96.8475
55		652.493		174.745
56		502.709		402.879
57		274.204		554.636
58		-1.57854		606.195
59		-286.198		541.912
60		-532.587		358.227
61		-688.003		71.7371
62		-704.928		-273.93
63		-558.026		-609.368
64		-260.055		-852.824
65		132.206		-933.714
66		527.899		-817.96
67		826.901		-524.176
68		951.263		-122.384
69		871.006		285.98
70		613.696		599.842
71		253.809		749.801
72		-113.526		716.955
73		-403.498		532.864
74		-565.13		262.463
75		-589.478		-21.3421
76		-501.996		-260.352
77		-345.331		-422.874
78		-161.747		-502.709
79		17.4359		-509.584
80		173.143		-458.25
81		293.626		-362.281
82		369.053		-234.309
83		390.228		-89.9586
84		352.298		49.398
85		260.409		158.719
86		132.601		216.199
87		-3.19879		211.44
88		-117.573		150.02
89		-189.399		51.3846
90		-211.909		-59.2016
91		-191.893		-160.419
92		-142.842		-241.125
93		-76.3597		-299.903
94		2.86405		-338.83
95		95.4146		-355.945
96		199.992		-341.863
97		305.55		-283.582
98		388.551		-174.129
99		418.62		-22.6871
100		371.167		141.249
101		241.181		273.59
102		50.9456		330.168
103		-153.203		284.116
104		-314.802		138.235
105		-386.404		-73.5905
106		-345.858		-296.843
107		-203.047		-474.206
108		5.04906		-563.201
109		227.764		-546.803
110		416.187		-434.144
111		534.387		-253.28
112		563.558		-41.1495
113		500.44		164.292
114		354.06		327.713
115		144.376		417.505
116		-96.5474		408.04
117		-323.744		285.718
118		-483.334		57.9438
119		-523.926		-239.636
120		-413.67		-543.724
121		-156.632		-775.56
122		199.78		-863.173
123		572.227		-766.449
124		863.63		-494.806
125		993.222		-109.057
126		923.233		294.942
127		671.594		615.53
128		305.546		776.471
129		-81.0666		748.4
130		-397.471		553.142
131		-581.09		250.99
132		-609.613		-82.0658
133		-498.056		-377.043
134		-285.444		-586.314
135		-19.2126		-686.74
136		255.64		-674.593
137		500.112		-558.548
138		680.052		-356.124
139		765.575		-94.9111
140		735.176		184.667
141		584.479		430.478
142		335.1		587.485
143		37.0388		613.368
144		-239.908		495.166
145		-425.067		258.834
146		-469.751		-34.3898
147		-364.689		-305.318
148		-144.12		-481.947
149		125.806		-522.482
150		369.766		-427.01
151		527.766		-233.54
152		571.581		-1.13275
153		507.537		211.794
154		366.561		364.552
155		188.029		440.531
156		5.79993		442.61
157		-157.735		382.781
158		-289.025		273.225
159		-376.617		123.913
160		-406.731		-53.0502
161		-365.505		-236.831
162		-247.519		-395.34
163		-65.5153		-490.879
164		145.536		-493.148
165		334.59		-393.85
166		450.24		-215.085
167		459.837		-5.90448
168		363.304		173.116
169		194.659		271.419
170		9.72147		266.862
171		-135.031		172.741
172		-203.287		30.3199
173		-190.342		-109.561
174		-120.579		-207.316
175		-32.9516		-248.544
176		38.1267		-245.37
177		77.3976		-225.657
178		92.4942		-216.211
179		106.012		-228.493
180		140.752		-253.512
181		205.87		-267.69
182		290.657		-246.064
183		368.487		-175.961
184		408.44		-64.6266
185		388.761		62.3081
186		306.019		170.127
187		176.566		227.356
188		30.7267		215.768
189		-96.7766		134.68
190		-175.871		-0.643402
191		-186.846		-164.123
192		-122.413		-324.552
193		12.3022		-450.06
194		200.054		-511.611
195		411.639		-487.004
196		607.361		-366.454
197		742.016		-158.887
198		774.541		103.959
199		680.844		369.315
200		465.572		573.255
201		167.351		657.51
202		-146.55		588.4
203		-396.396		370.943
204		-512.755		51.9798
205		-458.306		-290.202
206		-240.845		-567.2
207		87.4715		-705.923
208		444.635		-669.609
209		742.098		-467.559
210		909.066		-150.966
211		910.169		202.905
212		751.873		512.299
213		477.186		711.37
214		151.922		763.994
215		-152.431		668.583
216		-374.433		454.598
217		-473.919		173.355
218		-437.668		-113.838
219		-279.813		-347.754
220		-37.8539		-481.98
221		234.925		-491.184
222		479.794		-375.881
223		644.36		-162.558
224		693.718		101.531
225		618.347		358.467
226		436.397		552.724
227		189.283		643.952
228		-68.4699		616.009
229		-282.403		479.732
230		-410.591		268.916
231		-432.122		31.0671
232		-349.828		-184.105
233		-187.406		-335.281
234		17.3878		-396.915
235		221.25		-362.554
236		383.622		-244.398
237		473.633		-69.9952
238		475.157		123.098
239		389.635		294.101
240		236.188		406.653
241		48.435		436.317
242		-132.047		376.366
243		-264.772		240.065
244		-319.866		58.2193
245		-285.404		-127.908
246		-170.25		-276.576
247		-1.44806		-355.58
248		182.942		-349.382
249		343.169		-261.522
250		446.436		-112.263
251		472.736		67.0364
252		417.201		240.66
253		289.609		374.656
254		112.258		441.702
255		-83.0254		424.984
256		-258.817		321.518
257		-377.608		144.614
258		-409.15		-75.8002
259		-338.583		-296.682
260		-172.842		-470.055
261		57.757		-554.76
262		304.87		-528.519
263		514.061		-395.843
264		639.987		-188.138
265		659.595		44.964
266		578.266		250.46
267		426.426		387.662
268		247.984		438.835
269		85.3658		411.019
270		-32.8286		329.04
271		-96.987		223.536
272		-113.437		119.598
273		-95.98		30.82
274		-57.01		-39.653
275		-2.74478		-93.1183
276		65.6288		-128.765
277		146.622		-140.771
278		232.962		-120.75
279		309.926		-63.8713
280		359.037		25.2815
281		365.422		131.027
282		324.804		230.617
283		246.135		302.224
284		148.255		332.792
285		52.295		321.656
286		-26.0612		278.202
287		-80.2907		215.256
288		-110.981		142.373
289		-119.805		63.2179
290		-103.864		-21.2769
291		-54.785		-106.045
292		35.7806		-176.094
293		166.652		-206.652
294		319.088		-171.173
295		455.984		-54.6184
296		530.937		134.224
297		504.872		358.288
298		363.523		559.57
299		127.675		676.837
300		-149.323		667.125
301		-396.861		522.194
302		-549.51		272.923
303		-567.773		-20.2388
304		-449.132		-286.661
305		-225.917		-466.753
306		47.74		-526.929
307		313.31		-463.852
308		522.334		-298.766
309		643.483		-66.8301
310		662.302		192.548
311		577.458		440.783
312		398.141		640.956
313		145.027		758.039
314		-146.706		762.528
315		-426.659		638.844
316		-635.234		395.736
317		-717.566		72.8238
318		-641.756		-262.49
319		-414.056		-529.892
320		-83.2947		-659.328
321		269.466		-614.296
322		553.923		-405.801
323		698.262		-90.6255
324		671.208		246.151
325		490.089		517.954
326		212.316		662.665
327		-85.553		658.329
328		-332.368		523.956
329		-481.29		307.145
330		-517.243		65.254
331		-452.735		-151.75
332		-316.625		-310.985
333		-142.276		-397.684
334		40.0122		-410.578
335		205.102		-356.413
336		331.93		-247.199
337		402.939		-100.668
338		406.45		58.4773
339		341.522		199.905
340		222.177		293.404
341		77.2807		317.84
342		-55.8274		269.428
343		-142.503		164.883
344		-162.396		36.9405
345		-116.294		-76.6173
346		-24.9		-146.042
347		80.0517		-159.178
348		168.372		-123.46
349		222.024		-59.8887
350		239.264		7.72406
351		231.11		62.8929
352		212.701		101.34
353		194.395		128.908
354		177.186		154.438
355		154.427		181.985
356		118.393		206.8
357		67.6944		217.247
358		11.2122		201.545
359		-33.8108		155.652
360		-48.7952		87.9777
361		-22.5744		18.29
362		42.3962		-28.9634
363		129.382		-33.9383
364		212.611		10.8363
365		266.071		97.494
366		272.101		205.655
367		226.386		309.454
368		137.883		385.597
369		24.4784		419.266
370		-93.1477		406.138
371		-196.757		350.747
372		-273.184		262.972
373		-314.339		154.791
374		-315.885		38.7267
375		-276.332		-72.0169
376		-197.626		-162.928
377		-87.0859		-218.65
378		40.6871		-225.556
379		163.717		-176.155
380		255.675		-73.79
381		292.007		64.6313
382		257.608		209.814
383		153.432		325.842
384		-0.734497		379.476
385		-169.095		350.332
386		-308.218		238.531
387		-378.877		66.866
388		-357.78		-123.877
389		-245.307		-285.497
390		-66.4482		-375.812
391		135.662		-370.713
392		311.695		-270.933
393		419.738		-101.389
394		436.195		96.4658
395		360.743		276.468
396		214.361		399.712
397		31.9374		442.996
398		-147.393		401.86
399		-288.882		288.582
400		-367.689		127.178
401		-371.085		-52.1327
402		-298.566		-217.476
403		-161.384		-338.839
404		17.9348		-391.608
405		206.895		-361.078
406		366.823		-247.553
407		460.198		-70.0596
408		460.736		134.208
409		363.165		316.7
410		188.368		430.079
411		-19.5875		443.008
412		-205.133		351.586
413		-318.309		182.277
414		-331.115		-15.861
415		-246.51		-187.385
416		-96.1708		-289.018
417		72.2204		-303.145
418		212.815		-240.908
419		297.039		-134.124
420		320.381		-20.2144
421		298.448		72.7472
422		255.29		134.277
423		210.386		170.096
424		170.782		193.135
425		131.705		212.596
426		84.2883		227.272
427		25.2755		226.571
428		-37.1921		198.214
429		-85.1888		137.841
430		-99.1772		54.7714
431		-68.1806		-29.5809
432		3.72296		-89.9986
433		98.1824		-108.053
434		190.172		-79.3983
435		258.215		-14.0961
436		291.766		69.7188
437		292.118		154.85
438		267.12		231.425
439		223.621		297.205
440		162.823		352.27
441		81.7996		392.175
442		-19.6287		404.868
443		-131.184		374.546
444		-229.343		291.343
445		-282.908		161.656
446		-265.711		12.6143
447		-170.703		-113.477
448		-17.9583		-173.775
449		148.614		-142.627
450		275.74		-24.0662
451		320.679		147.353
452		267.736		318.477
453		133.93		437.242
454		-38.6376		471.42
455		-199.866		418.312
456		-310.12		301.815
457		-351.903		159.465
458		-330.501		26.5437
459		-265.204		-75.0273
460		-177.181		-138.683
461		-81.0136		-167.168
462		16.1768		-163.845
463		109.064		-127.645
464		187.109		-55.082
465		232.156		52.1434
466		223.66		179.399
467		149.59		297.342
468		17.0289		369.143
469		-144.246		364.54
470		-288.721		274.215
471		-370.725		117.042
472		-361.965		-64.2224
473		-262.925		-217.607
474		-102.765		-300.643
475		72.1483		-294.844
476		215.602		-209.886
477		296.857		-76.5589
478		307.656		67.1226
479		259.259		189.532
480		172.905		272.843
481		69.7767		312.411
482		-34.3634		310.881
483		-128.408		272.246
484		-201.718		200.111
485		-241.272		100.87
486		-233.725		-11.3616
487		-172.25		-112.95
488		-64.2208		-175.365
489		65.7311		-175.543
490		180.862		-107.231
491		244.831		12.9949
492		236.3		149.321
493		158.478		259.404
494		38.4407		310.801
495		-83.9904		293.423
496		-172.738		222.008
497		-209.425		127.538
498		-198.226		42.1112
499		-159.758		-15.0333
500		-117.836		-43.4462
501		-86.4642		-56.9708
502		-63.9355		-72.0346
503		-36.8066		-95.7006
504		9.06543		-120.29
505		77.0613		-127.508
506		154.655		-99.5923
507		217.682		-31.0555
508		241.808		65.7006
509		214.958		164.2
510		143.981		235.233
511		51.9984		259.73
512		-32.019		236.483
513		-85.7944		180.964
514		-101.878		116.428
515		-87.5564		62.5514
516		-57.4636		27.8738
517		-23.8011		9.75388
518		9.85489		1.00908
519		47.6431		-1.51413
520		94.3303		7.78104
521		146.845		40.7478
522		190.253		106.873
523		201.58		203.532
524		160.341		311.22
525		60.5834		397.499
526		-82.099		428.748
527		-232.865		384.539
528		-348.954		267.762
529		-395.22		105.55
530		-357.021		-59.5802
531		-244.98		-184.339
532		-90.1857		-238.645
533		67.2487		-213.44
534		190.785		-120.266
535		256.203		15.5168
536		254.309		163.584
537		188.789		295.559
538		72.3924		388.322
539		-75.7789		424.837
540		-231.269		394.967
541		-365.236		297.98
542		-447.866		146.103
543		-455.315		-33.6437
544		-378.5		-202.475
545		-229.718		-318.897
546		-42.848		-351.598
547		134.816		-291.19
548		257.072		-155.281
549		294.253		16.1867
550		243.154		174.178
551		127.142		277.174
552		-13.5265		304.364
553		-136.835		260.198
554		-213.011		169.163
555		-231.852		64.033
556		-201.401		-26.601
557		-140.134		-86.1908
558		-67.5051		-111.146
559		2.47589		-106.242
560		62.4326		-78.4202
561		108.712		-32.8744
562		137.624		26.8917
563		143.984		96.2191
564		123.049		166.626
565		74.339		225.954
566		4.38441		261.878
567		-73.9495		266.865
568		-145.717		241.514
569		-199.473		194.012
570		-230.911		135.844
571		-242.388		76.3151
572		-238.704		19.2925
573		-222.003		-35.6952
574		-189.42		-88.6785
575		-135.577		-134.051
576		-58.9383		-158.946
577		31.7828		-147.38
578		115.707		-88.957
579		164.957		12.2697
580		155.664		134.092
581		79.9793		240.872
582		-47.0839		295.823
583		-190.176		275.827
584		-305.38		181.969
585		-356.478		40.554
586		-328.569		-106.274
587		-232.986		-216.271
588		-101.541		-262.198
589		26.8165		-239.782
590		120.542		-165.726
591		164.762		-67.8042
592		161.977		27.365
593		125.485		102.882
594		70.246		153.145
595		6.57295		179.354
596		-60.435		183.096
597		-126.643		162.786
598		-183.813		115.396
599		-218.161		42.1746
600		-214.592		-45.8277
601		-164.896		-126.957
602		-75.256		-174.852
603		31.8626		-169.048
604		123.726		-105.2
605		169.325		0.619492
606		151.996		116.426
607		76.596		206.138
608		-32.3893		243.446
609		-141.003		221.334
610		-219.399		153.01
611		-252.479		64.2575
612		-242.919		-18.5726
613		-205.989		-78.8739
614		-159.676		-113.652
615		-115.734		-129.93
616		-76.2493		-136.696
617		-36.8859		-137.562
618		5.89383		-128.497
619		48.5312		-101.784
620		79.2022		-53.5737
621		82.898		9.78443
622		50.1345		70.8789
623		-15.6203		107.067
624		-96.2668		100.442
625		-164.678		46.9313
626		-195.282		-40.2749
627		-174.646		-134.969
628		-106.981		-208.02
629		-12.0312		-238.585
630		83.4672		-221.251
631		156.46		-166.119
632		195.349		-92.384
633		201.605		-19.1165
634		185.26		42.0325
635		157.416		88.8955
636		124.114		125.348
637		84.7535		155.057
638		35.5191		176.426
639		-24.6331		181.854
640		-89.2499		161.817
641		-144.023		111.512
642		-171.478		36.2765
643		-158.621		-47.4578
644		-103.77		-116.68
645		-19.0995		-150.001
646		72.5824		-135.9
647		145.541		-77.3198
648		179.994		9.37113
649		168.427		100.428
650		116.942		173.03
651		41.5746		212.292
652		-38.3215		214.379
653		-106.52		185.118
654		-153.627		135.541
655		-177.136		76.9603
656		-178.787		17.8745
657		-161.343		-36.2838
658		-126.839		-81.2904
659		-77.1918		-111.995
660		-16.5204		-121.788
661		46.6416		-104.516
662		99.1585		-58.14
663		126.084		11.7838
664		115.799		90.9967
665		65.4271		159.115
666		-16.0425		195.539
667		-108.806		186.653
668		-187.666		131.414
669		-230.086		42.7922
670		-223.829		-55.8675
671		-171.116		-138.406
672		-87.5495		-184.441
673		3.74503		-185.603
674		80.3291		-147
675		127.563		-83.6006
676		141.786		-13.4163
677		128.63		49.2509
678		97.8395		97.4751
679		57.5975		130.958
680		11.4238		151.88
681		-40.8216		160.191
682		-98.6897		151.443
683		-156.497		118.852
684		-201.607		58.7641
685		-217.557		-23.5319
686		-191.276		-111.379
687		-121.078		-180.115
688		-21.0892		-205.725
689		81.0076		-175.307
690		152.974		-94.3991
691		170.389		12.8611
692		126.977		111.64
693		37.9628		169.453
694		-65.4649		168.775
695		-148.42		113.564
696		-185.942		26.7544
697		-171.912		-60.0595
698		-119.467		-119.899
699		-53.1677		-140.507
700		2.90948		-126.923
701		35.2833		-95.974
702		44.7381		-66.1332
703		42.4586		-48.2195
704		41.4512		-41.5882
705		48.3149		-37.2203
706		59.8702		-25.3167
707		66.1753		-2.67577
708		57.7774		24.4889
709		32.6943		43.8364
710		-1.1004		44.2418
711		-29.2235		22.796
712		-38.4446		-12.7271
713		-23.8841		-47.4737
714		8.35461		-67.1779
715		44.6848		-65.4896
716		71.6542		-46.7114
717		83.218		-22.3518
718		83.3419		-3.54424
719		82.3151		6.08976
720		88.9155		12.6811
721		103.202		27.7958
722		114.618		59.8261
723		107.187		106.173
724		69.4269		151.278
725		3.50914		172.567
726		-71.9155		151.915
727		-127.786		86.7996
728		-137.394		-5.0884
729		-89.7741		-91.0362
730		3.17137		-136.564
731		109.899		-120.681
732		191.803		-45.7476
733		219.393		63.0247
734		184.409		168.304
735		102.234		236.466
736		3.74268		250.95
737		-79.0169		216.997
738		-126.137		156.186
739		-135.882		94.2557
740		-121.264		48.8807
741		-99.9756		23.5283
742		-83.7133		9.85498
743		-72.7666		-3.6593
744		-58.3779		-22.3841
745		-30.868		-41.078
746		11.6837		-46.7742
747		59.5524		-27.1453
748		94.7281		20.6759
749		99.7606		86.074
750		67.1947		148.237
751		4.35578		185.154
752		-69.1579		183.593
753		-129.935		144.845
754		-160.681		83.4606
755		-156.575		20.018
756		-125.19		-27.9609
757		-80.8015		-52.1699
758		-36.81		-54.0349
759		-0.666061		-40.2882
760		26.2757		-17.0726
761		44.8003		13.4364
762		53.1674		51.863
763		45.4715		97.0651
764		14.6772		141.742
765		-41.25		171.93
766		-114.075		171.818
767		-184.858		131.912
768		-229.81		56.0974
769		-230.282		-36.8181
770		-181.976		-118.887
771		-98.4284		-163.986
772		-6.42963		-158.853
773		64.7926		-108.715
774		95.5377		-34.6232
775		82.9692		36.2096
776		40.4199		82.2357
777		-10.5926		95.723
778		-51.2109		83.4993
779		-73.2666		60.5529
780		-80.6214		40.4778
781		-83.766		28.1852
782		-91.3088		18.7239
783		-103.513		2.42623
784		-111.643		-27.0175
785		-103.39		-66.537
786		-71.132		-103.412
787		-18.1012		-121.089
788		41.226		-107.916
789		86.9888		-63.9339
790		103.009		-1.93824
791		84.2752		57.8382
792		38.9869		96.6016
793		-15.7153		104.81
794		-61.8013		85.0598
795		-87.8353		49.0247
796		-92.164		10.659
797		-80.7484		-20.3038
798		-61.6367		-41.1009
799		-39.795		-53.9889
800		-15.4244		-61.5351
801		13.5268		-62.6585
802		46.7175		-52.2673
803		78.1073		-24.901
804		96.6763		19.9242
805		91.3338		74.2784
806		57.4385		122.992
807		1.06199		149.489
808		-61.8775		143.499
809		-111.722		106.486
810		-133.542		51.6772
811		-123.634		-1.63009
812		-90.6154		-36.6573
813		-50.5909		-46.2162
814		-19.0043		-34.6552
815		-3.57945		-13.8873
816		-2.03491		4.05418
817		-5.53004		13.6521
818		-5.55945		18.0309
819		-0.108833		25.5328
820		4.61824		42.9407
821		-2.01851		69.4925
822		-27.9603		95.4083
823		-72.1323		106.08
824		-122.769		89.8129
825		-161.681		44.8929
826		-172.456		-17.9931
827		-148.386		-79.5241
828		-95.9676		-119.911
829		-32.191		-127.357
830		22.9393		-102.595
831		54.7627		-57.47
832		59.0683		-8.66924
833		41.7694		29.8482
834		13.9777		51.8028
835		-14.3316		58.7748
836		-38.4414		56.2901
837		-58.822		48.7345
838		-77.5593		36.4167
839		-94.0813		16.5103
840		-103.301		-12.9677
841		-97.674		-48.9865
842		-72.1206		-82.2059
843		-28.7997		-99.9388
844		21.445		-92.1462
845		62.3832		-57.2468
846		79.1632		-4.34594
847		65.1728		49.7137
848		25.3675		87.2998
849		-25.7998		97.5323
850		-70.8897		80.6203
851		-97.1261		46.8591
852		-101.331		10.9627
853		-89.8054		-15.1755
854		-73.5639		-27.4944
855		-61.7632		-30.1092
856		-57.0045		-31.1836
857		-54.964		-36.9554
858		-48.2928		-47.4511
859		-32.3215		-56.3325
860		-9.1392		-54.9063
861		12.405		-37.9475
862		20.9079		-7.96062
863		8.5898		24.6325
864		-23.8932		45.6637
865		-66.6186		43.6859
866		-104.059		15.4755
867		-121.444		-32.1366
868		-110.74		-84.8893
869		-73.5322		-126.736
870		-19.78		-145.751
871		36.518		-137.705
872		82.4291		-106.161
873		109.665		-59.7614
874		115.538		-8.54372
875		101.718		38.841
876		72.2338		76.1505
877		32.0749		99.2077
878		-13.0947		105.326
879		-56.666		93.4596
880		-91.298		65.1592
881		-110.282		25.4941
882		-109.77		-17.173
883		-90.722		-53.1184
884		-59.2484		-74.3728
