Compute Correlation 
 
0		435.03		-497.42
1		614.683		-325.829
2		702.795		-87.8158
3		678.077		172.031
4		538.118		402.682
5		302.612		553.3
6		14.6072		583.242
7		-263.921		474.429
8		-464.545		241.71
9		-531.334		-64.7712
10		-440.247		-369.279
11		-210.676		-591.384
12		97.2502		-671.42
13		400.444		-590.585
14		619.68		-376.988
15		704.92		-94.6518
16		648.854		180.019
17		483.613		384.187
18		263.329		485.992
19		41.5742		487.012
20		-145.602		410.896
21		-284.069		285.942
22		-373.663		131.704
23		-414.82		-43.4961
24		-399.319		-234.158
25		-311.767		-425.023
26		-141.643		-583.821
27		101.146		-666.065
28		377.318		-631.649
29		623.288		-465.725
30		770.526		-192.767
31		771.528		124.92
32		620.409		405.681
33		357.801		576.885
34		56.9296		600.777
35		-203.333		486.185
36		-366.32		281.097
37		-413.988		50.2456
38		-365.4		-151.163
39		-259.738		-295.164
40		-133.742		-382.756
41		-5.61678		-430.79
42		126.769		-452.848
43		273.71		-445.663
44		435.637		-389.116
45		590.571		-260.029
46		695.466		-52.0012
47		702.227		210.176
48		581.041		470.672
49		339.212		659.089
50		25.3556		716.589
51		-284.248		619.764
52		-511.705		391.112
53		-604.525		91.2285
54		-551.863		-203.553
55		-383.614		-427.748
56		-154.208		-545.888
57		80.087		-556.911
58		279.432		-484.125
59		426.647		-357.924
60		520.763		-201.251
61		563.993		-25.1137
62		551.211		164.815
63		469.003		356.062
64		305.347		520.471
65		64.5563		615.657
66		-221.537		598.224
67		-493.901		443.481
68		-680.457		162.299
69		-719.54		-193.772
70		-583.258		-543.045
71		-290.844		-796.916
72		93.843		-887.197
73		479.979		-787.33
74		775.922		-519.981
75		914.392		-149.255
76		868.591		238.481
77		655.484		557.681
78		327.56		743.251
79		-42.2391		762.203
80		-377.008		616.642
81		-610.05		340.108
82		-695.411		-10.0077
83		-615.014		-362.263
84		-382.651		-642.793
85		-43.936		-788.758
86		329.576		-762.401
87		653.352		-562.609
88		848.883		-229.576
89		864.521		161.081
90		691.688		515.356
91		370.152		745.359
92		-20.8662		794.002
93		-384.018		651.588
94		-631.066		358.347
95		-707.089		-8.09973
96		-603.795		-355.924
97		-358.219		-604.84
98		-38.5266		-706.001
99		277.078		-650.552
100		520.806		-466.011
101		649.165		-203.985
102		647.9		75.2075
103		529.287		315.952
104		325.123		476.184
105		78.6815		531.725
106		-162.683		477.64
107		-354.318		327.946
108		-461.127		113.725
109		-464.348		-121.396
110		-366.64		-329.28
111		-192.914		-468.106
112		14.9668		-513.181
113		209.256		-463.728
114		349.898		-342.369
115		415.621		-186.78
116		408.01		-36.4636
117		346.914		79.9501
118		259.467		151.508
119		168.039		183.221
120		82.9331		187.375
121		3.10636		172.943
122		-76.0549		139.07
123		-152.758		76.4013
124		-212.816		-24.3384
125		-231.857		-161.275
126		-185.54		-314.364
127		-63.0648		-447.232
128		122.963		-518.298
129		335.946		-496.709
130		525.272		-375.852
131		643.018		-178.021
132		660.203		52.1149
133		575.658		262.379
134		414.176		409.651
135		215.734		471.182
136		21.4778		446.757
137		-137.042		352.619
138		-241.542		211.905
139		-284.136		47.275
140		-262.077		-120.984
141		-175.076		-272.197
142		-27.7318		-382.077
143		164.491		-423.745
144		370.584		-375.048
145		545.796		-229.765
146		642.016		-6.87206
147		623.954		248.404
148		484.3		474.611
149		250.36		612.682
150		-22.0632		625.886
151		-265.994		512.572
152		-424.909		306.064
153		-469.681		61.8794
154		-404.176		-161.802
155		-258.365		-321.743
156		-73.6501		-398.351
157		111.803		-393.514
158		271.091		-321.29
159		387.96		-198.285
160		450.876		-39.5658
161		448.074		138.444
162		368.748		311.781
163		211.029		445.934
164		-7.8204		501.063
165		-246.383		445.595
166		-444.946		272.653
167		-542.628		10.6712
168		-499.761		-278.937
169		-315.694		-518.489
170		-33.2722		-639.497
171		273.185		-606.568
172		522.03		-429.613
173		650.693		-159.412
174		633.721		130.96
175		486.131		370.285
176		252.819		508.845
177		-9.21428		526.849
178		-247.092		431.275
179		-420.773		246.3
180		-503.821		4.36865
181		-480.692		-257.641
182		-346.283		-497.834
183		-110.504		-669.209
184		194.604		-725.524
185		511.735		-634.762
186		765.627		-395.874
187		882.505		-50.0115
188		816.21		322.327
189		570.103		621.353
190		203.43		759.949
191		-183.435		695.307
192		-481.149		446.481
193		-608.755		89.2421
194		-540.881		-270.632
195		-313.493		-534.8
196		-6.31226		-644.95
197		289.616		-597.429
198		504.624		-435.384
199		609.707		-224.18
200		616.039		-22.8838
201		558.168		135.053
202		471.581		244.788
203		376.582		318.604
204		275.51		368.859
205		162.209		395.982
206		36.0318		387.935
207		-89.1295		330.209
208		-186.53		219.244
209		-227.906		70.4909
210		-197.598		-84.1262
211		-101.081		-208.094
212		37.0021		-274.81
213		183.914		-276.598
214		312.395		-223.629
215		408.893		-134.277
216		472.207		-23.5486
217		504.423		102.833
218		501.028		244.832
219		447.816		397.461
220		328.178		540.591
221		137.667		637.358
222		-102.594		644.884
223		-342.834		533.868
224		-516.444		307.649
225		-563.462		10.1723
226		-455.808		-283.141
227		-212.39		-489.498
228		103.749		-548.125
229		405.856		-442.307
230		612.983		-204.641
231		676.112		96.1868
232		590.548		380.493
233		391.123		583.248
234		134.74		670.056
235		-120.292		639.067
236		-328.966		511.673
237		-464.114		319.545
238		-512.843		95.4401
239		-471.053		-129.038
240		-341.829		-321.182
241		-139.318		-446.162
242		105.541		-472.088
243		343.853		-381.352
244		517.011		-183.12
245		573.954		80.868
246		491.089		343.088
247		285.418		529.617
248		13.3083		585.397
249		-246.483		494.74
250		-419.464		287.776
251		-460.822		29.5443
252		-369.063		-203.731
253		-182.739		-350.982
254		37.1588		-384.391
255		230.446		-312.839
256		356.401		-171.469
257		401.033		-4.21643
258		372.539		151.757
259		290.155		273.433
260		173.839		350.295
261		40.0003		377.913
262		-96.2707		352.896
263		-216.503		273.323
264		-297.166		144.257
265		-314.313		-16.0635
266		-253.359		-174.912
267		-118.929		-291.706
268		61.3196		-331.052
269		242.355		-276.582
270		375.574		-138.876
271		425.095		46.7262
272		379.475		231.789
273		253.965		370.796
274		83.0515		434.617
275		-92.5322		416.27
276		-238.131		327.999
277		-331.963		192.877
278		-365.185		36.1143
279		-337.771		-119.843
280		-254.429		-255.587
281		-123.696		-352.809
282		39.7494		-393.866
283		212.395		-365.197
284		362.61		-263.804
285		456.815		-103.177
286		469.792		85.658
287		394.785		260.319
288		248.325		379.136
289		66.7186		414.446
290		-104.959		361.442
291		-226.948		238.758
292		-276.132		80.7903
293		-250.278		-74.4947
294		-164.432		-196.798
295		-42.336		-269.414
296		92.3842		-288.633
297		221.307		-258.788
298		331.389		-186.904
299		412.06		-80.2647
300		452.641		52.2791
301		442.831		197.151
302		376.627		334.271
303		257.536		439.115
304		101.69		488.727
305		-63.6053		469.297
306		-206.092		381.798
307		-297.232		242.922
308		-319.842		80.8469
309		-271.846		-72.2887
310		-165.297		-188.095
311		-21.9963		-247.199
312		131.905		-241.145
313		270.298		-171.784
314		369.936		-49.7843
315		412.441		106.591
316		386.639		272.608
317		291.517		419.247
318		138.759		517.535
319		-47.0614		544.845
320		-232.11		491.38
321		-380.593		364.132
322		-463.609		186.185
323		-466.351		-8.89252
324		-390.951		-185.59
325		-254.214		-314.672
326		-81.8092		-378.18
327		98.1552		-370.214
328		259.553		-294.708
329		379.856		-162.736
330		440.245		8.6156
331		426.581		195.616
332		332.841		367.417
333		166.429		488.489
334		-47.5217		525.621
335		-266.582		458.391
336		-438.543		289.301
337		-515.136		48.5662
338		-467.666		-210.064
339		-298.471		-422.558
340		-43.1122		-532.967
341		238.35		-510.434
342		478.249		-358.571
343		620.384		-113.956
344		634.7		165.224
345		523.159		415.78
346		316.165		585.474
347		62.2854		643.693
348		-184.301		585.112
349		-374.864		427.457
350		-473.872		205.869
351		-463.579		-33.9116
352		-346.396		-242.727
353		-145.391		-375.774
354		97.8909		-401.147
355		329.624		-308.081
356		494.384		-112.323
357		548.715		144.36
358		473.812		402.23
359		282.714		598.125
360		18.6353		682.498
361		-255.857		633.391
362		-475.655		462.525
363		-590.415		211.523
364		-576.885		-60.1111
365		-442.926		-290.902
366		-223.13		-432.09
367		31.357		-457.359
368		265.1		-366.245
369		429.643		-182.04
370		492.144		54.0591
371		440.942		291.06
372		287.942		477.73
373		67.226		572.928
374		-170.981		555.34
375		-371.163		430.082
376		-486.522		229.234
377		-492.337		4.4837
378		-393.811		-187.168
379		-224.666		-300.464
380		-36.0078		-315.574
381		120.868		-242.927
382		211.145		-117.054
383		225.962		17.9629
384		181.152		125.159
385		106.514		186.312
386		31.2256		204.002
387		-27.6075		194.353
388		-68.2991		175.151
389		-99.3932		155.95
390		-129.962		135.075
391		-161.477		104.246
392		-185.914		57.1864
393		-190.788		-3.45595
394		-167.599		-65.2638
395		-118.217		-111.752
396		-55.0751		-131.031
397		5.043		-121.972
398		49.8044		-93.9364
399		77.1554		-60.1199
400		94.3027		-28.6818
401		110.216		2.50148
402		126.295		43.5462
403		131.513		103.384
404		106.224		178.931
405		33.8186		249.648
406		-85.5994		282.254
407		-227.508		244.96
408		-346.959		124.929
409		-394.247		-59.9901
410		-335.944		-262.24
411		-171.597		-419.341
412		62.1853		-476.748
413		302.818		-408.859
414		483.442		-228.935
415		555.827		16.1139
416		504.925		263.066
417		349.966		453.632
418		133.596		550.555
419		-94.2677		543.199
420		-290.074		443.133
421		-423.009		274.96
422		-474.561		68.644
423		-435.731		-143.31
424		-306.84		-325.169
425		-101.645		-438.461
426		147.184		-448.063
427		387.203		-334.332
428		554.886		-106.512
429		593.979		190.463
430		477.422		482.354
431		222.915		686.074
432		-106.683		737.797
433		-420.858		617.353
434		-631.313		357.844
435		-682.429		35.3255
436		-569.677		-257.816
437		-338.454		-444.827
438		-64.5666		-488.711
439		174.437		-399.365
440		324.585		-222.642
441		367.655		-18.3399
442		317.593		161.897
443		206.111		287.46
444		66.6242		349.26
445		-75.4621		351.421
446		-203.287		301.706
447		-303.139		207.189
448		-359.634		76.9544
449		-356.792		-71.8332
450		-285.569		-210.862
451		-153.279		-305.301
452		12.0201		-325.804
453		166.957		-262.308
454		267.461		-131.807
455		286.267		25.3486
456		224.604		160.253
457		111.703		234.863
458		-8.19266		236.736
459		-95.1349		181.852
460		-129.607		104.385
461		-117.706		38.9711
462		-83.4657		4.77419
463		-53.1769		-0.644722
464		-40.6217		4.77322
465		-41.1599		1.62035
466		-37.3695		-17.4672
467		-12.3281		-42.619
468		37.5936		-52.6389
469		98.0682		-28.3223
470		143.093		34.7499
471		148.653		121.514
472		105.945		203.694
473		26.5757		253.605
474		-63.2378		257.729
475		-136.16		222.464
476		-177.254		168.934
477		-189.878		120.051
478		-190.776		87.4266
479		-197.423		65.8294
480		-215.299		38.4679
481		-232.854		-9.95111
482		-227.645		-80.1516
483		-180.615		-153.294
484		-90.5361		-197.835
485		19.9103		-185.393
486		110.803		-107.486
487		141.981		15.9692
488		92.2974		141.609
489		-28.4785		219.408
490		-181.28		213.67
491		-312.41		118.4
492		-374.513		-39.9379
493		-344.326		-213.129
494		-229.712		-349.896
495		-63.9935		-413.908
496		108.431		-393.7
497		247.806		-301.767
498		329.366		-165.528
499		345.517		-16.0357
500		301.661		120.058
501		210.252		223.057
502		87.2069		278.956
503		-48.1969		278.119
504		-172.092		216.839
505		-257.129		101.692
506		-278.194		-46.4793
507		-221.653		-193.169
508		-93.8295		-297.714
509		76.459		-326.148
510		244.303		-264.278
511		362.682		-124.751
512		398.596		55.8894
513		344.384		229.569
514		219.199		353.36
515		60.2075		403.269
516		-92.1574		379.458
517		-208.028		301.459
518		-275.119		196.792
519		-296.891		89.154
520		-284.43		-8.1665
521		-247.478		-91.4007
522		-189.803		-160.021
523		-111.034		-209.956
524		-13.0334		-231.072
525		93.8282		-210.836
526		189.096		-142.232
527		247.224		-31.2777
528		247.253		100.526
529		182.495		220.946
530		65.3324		297.36
531		-75.4536		308.207
532		-203.838		250.532
533		-288.216		140.525
534		-310.739		7.29355
535		-270.972		-117.022
536		-183.341		-206.514
537		-70.5704		-246.905
538		43.5387		-236.136
539		139.226		-181.482
540		202.843		-95.6108
541		226.724		6.43842
542		208.484		108.79
543		150.941		195.541
544		62.6507		252.076
545		-41.9778		267.479
546		-144.145		237.542
547		-224.115		166.953
548		-265.862		69.2884
549		-261.266		-35.6891
550		-212.25		-126.703
551		-130.105		-186.004
552		-32.4225		-203.137
553		61.1105		-176.508
554		132.685		-112.819
555		169.271		-25.0978
556		164.315		69.8218
557		118.508		153.947
558		39.8267		210.859
559		-57.3121		228.585
560		-154.176		202.301
561		-231.243		136.063
562		-272.601		42.6278
563		-269.966		-59.13
564		-224.86		-148.746
565		-148.021		-209.25
566		-56.1906		-231.056
567		32.4515		-213.386
568		102.484		-163.086
569		143.73		-91.7888
570		151.744		-12.9243
571		127.043		60.3288
572		74.247		115.991
573		1.83388		143.889
574		-77.7552		136.88
575		-148.702		93.0191
576		-194.137		17.8661
577		-200.308		-74.6245
578		-161.355		-164.041
579		-82.5366		-228.456
580		19.9989		-250.927
581		123.444		-224.954
582		205.151		-156.471
583		249.28		-61.4098
584		250.512		40.0527
585		213.518		129.843
586		149.009		196.128
587		68.8792		233.79
588		-16.8772		241.967
589		-100.172		220.992
590		-172.585		171.27
591		-223.351		95.1111
592		-240.047		0.327076
593		-212.829		-97.256
594		-140.559		-175.136
595		-35.4231		-210.188
596		77.324		-187.518
597		165.724		-108.12
598		201.731		8.75466
599		171.729		130.433
600		82.2024		221.447
601		-42.1714		255.619
602		-167.284		224.508
603		-261.338		138.817
604		-304.509		22.7088
605		-292.828		-95.7838
606		-235.636		-193.641
607		-149.117		-257.444
608		-49.8614		-282.838
609		48.4375		-270.923
610		134.555		-224.926
611		197.594		-149.634
612		226.178		-53.6093
613		210.95		48.1778
614		149.744		134.493
615		52.4243		182.511
616		-58.2731		175.936
617		-151.906		112.901
618		-200.277		9.26274
619		-188.058		-105.243
620		-119.046		-197.069
621		-14.8247		-240.911
622		93.8139		-228.322
623		178.697		-169.025
624		223.854		-84.6766
625		228.624		1.41095
626		203.574		73.2984
627		162.228		125.923
628		113.572		162.114
629		59.4466		185.805
630		-2.22383		196.123
631		-70.9485		186.248
632		-138.515		147.862
633		-188.945		78.5306
634		-204.312		-12.6733
635		-173.612		-105.156
636		-99.8416		-173.245
637		-1.16341		-196.255
638		94.9339		-167.234
639		161.867		-95.9663
640		183.681		-4.80646
641		159.725		80.4458
642		102.528		140.001
643		30.6631		165.447
644		-39.2208		159.143
645		-97.112		129.123
646		-139.355		83.2441
647		-164.786		26.2112
648		-170.727		-39.1416
649		-152.088		-107.906
650		-104.506		-169.92
651		-29.5745		-210.385
652		61.4836		-214.875
653		148.779		-176.42
654		209.832		-100.661
655		228.194		-5.77076
656		200.315		83.4662
657		137.048		144.807
658		58.9465		166.513
659		-12.2265		150.32
660		-61.4167		108.319
661		-83.827		55.9583
662		-82.931		5.2736
663		-64.9958		-38.0328
664		-34.0109		-72.64
665		9.63504		-96.8841
666		66.0194		-105.093
667		130.461		-88.1161
668		190.223		-38.4329
669		226.289		42.9441
670		220.41		142.182
671		164.264		234.393
672		65.827		291.725
673		-50.9762		294.461
674		-153.984		239.813
675		-214.688		143.956
676		-218.866		36.0928
677		-171.102		-52.6942
678		-91.4284		-100.574
679		-6.25678		-101.141
680		61.6643		-62.5067
681		99.601		-0.936993
682		105.36		66.8764
683		83.2779		128.773
684		39.2502		177.531
685		-21.747		208.062
686		-94.4588		214.674
687		-170.212		191.31
688		-235.193		135.259
689		-272.76		51.9541
690		-269.707		-42.8815
691		-223.401		-126.427
692		-145.439		-176.865
693		-58.8004		-182.73
694		11.0182		-148.474
695		46.8462		-92.7564
696		47.0493		-39.7202
697		25.0658		-7.50684
698		1.24864		-0.041172
699		-8.72926		-6.61756
700		-2.54517		-9.64481
701		7.98144		3.6763
702		4.65251		32.3564
703		-24.9596		60.6622
704		-77.8414		66.2185
705		-134.147		33.0846
706		-165.526		-37.308
707		-149.254		-123.654
708		-80.897		-192.688
709		21.3249		-213.966
710		123.093		-174.196
711		188.476		-83.8991
712		195.258		26.9171
713		143.69		121.801
714		54.763		173.016
715		-40.467		171.482
716		-114.585		127.297
717		-153.631		61.725
718		-158.809		-4.14923
719		-140.648		-57.7812
720		-110.2		-96.6611
721		-72.978		-123.484
722		-28.9549		-139.287
723		22.1991		-139.74
724		74.9892		-117.37
725		116.034		-68.3854
726		128.457		0.568481
727		100.872		70.8008
728		35.8188		117.36
729		-47.8337		120.01
730		-120.905		73.7517
731		-156.068		-7.08973
732		-140.163		-94.0076
733		-80.2185		-156.581
734		0.137344		-175.77
735		72.1036		-151.459
736		115.005		-100.488
737		124.543		-46.5222
738		111.938		-7.48792
739		94.9543		12.5496
740		86.2792		22.8448
741		86.0293		37.5519
742		82.6441		64.7005
743		61.4895		99.2802
744		15.9652		124.727
745		-45.6292		122.195
746		-101.877		82.398
747		-128.171		13.1551
748		-109.589		-62.0151
749		-49.6564		-113.975
750		29.9392		-121.635
751		98.8186		-82.0667
752		131.721		-11.7501
753		119.552		61.5787
754		72.1316		112.084
755		11.6634		127.075
756		-39.158		110.739
757		-67.8219		79.0392
758		-75.9596		49.2618
759		-75.0874		30.3888
760		-77.287		19.5814
761		-86.6308		6.3018
762		-96.4118		-18.8832
763		-93.638		-56.3664
764		-67.9329		-95.3085
765		-19.4364		-118.592
766		39.0672		-112.126
767		87.2153		-73.1868
768		106.63		-13.0497
769		89.787		47.5984
770		43.458		87.9603
771		-14.8824		96.149
772		-65.4557		73.3146
773		-94.6852		31.179
774		-99.4292		-15.0238
775		-85.3037		-53.8756
776		-60.9354		-81.3356
777		-32.1444		-99.1165
778		0.303787		-109.72
779		38.2917		-111.937
780		81.3169		-100.117
781		122.626		-67.9309
782		149.638		-14.2994
783		149.109		52.4589
784		114.403		115.405
785		50.6834		155.015
786		-25.3071		157.665
787		-91.2742		122.131
788		-128.394		60.5649
789		-128.802		-6.66991
790		-97.8372		-59.6503
791		-50.1994		-86.5844
792		-2.42259		-86.8207
793		34.1288		-68.195
794		56.1735		-40.8923
795		66.3938		-11.7405
796		68.3563		17.7784
797		62.1614		49.0539
798		43.8161		81.5506
799		8.78952		109.304
800		-42.6018		121.506
801		-101.683		107.378
802		-152.551		62.7297
803		-177.916		-5.72015
804		-166.844		-81.134
805		-120.292		-142.568
806		-51.346		-173.356
807		20.0927		-167.648
808		75.4629		-131.865
809		104.363		-80.6105
810		106.794		-29.5565
811		90.2721		10.7499
812		64.1053		37.0788
813		34.5238		51.2086
814		3.44486		55.3588
815		-28.8817		48.8194
816		-59.7027		28.2436
817		-81.4758		-8.51476
818		-83.6987		-57.6776
819		-58.3771		-107.494
820		-6.07616		-141.053
821		61.3288		-143.243
822		123.554		-108.435
823		159.71		-44.6115
824		157.349		28.7369
825		118.142		88.3543
826		57.1262		116.927
827		-4.17209		109.927
828		-47.2384		76.2558
829		-63.8518		32.6384
830		-57.6611		-4.98018
831		-39.7653		-28.3668
832		-21.2671		-38.7913
833		-7.2266		-43.2867
834		4.67216		-48.1546
835		20.4013		-53.9118
836		43.5282		-54.7775
837		70.8625		-42.8917
838		92.7195		-14.4963
839		97.8123		25.9217
840		79.8878		66.3205
841		42.0667		92.4887
842		-3.854		95.1182
843		-42.9074		74.4662
844		-64.168		39.8796
845		-65.5321		4.47715
846		-53.3673		-21.8395
847		-37.4146		-36.8955
848		-24.1921		-45.6436
849		-13.0758		-54.9752
850		2.40589		-67.3433
851		28.7749		-77.4526
852		65.948		-74.5005
853		104.169		-49.0526
854		127.064		-0.597374
855		119.761		58.9811
856		77.8013		108.745
857		11.6963		127.792
858		-55.9561		105.595
859		-99.8771		48.0527
860		-103.479		-24.2472
861		-66.3758		-84.9531
862		-4.13067		-113.62
863		59.5461		-104.179
864		103.964		-66.0213
865		120.102		-17.5522
866		112.441		23.9166
867		93.5991		50.2353
868		75.3884		64.2067
869		61.7562		74.6429
870		47.7177		88.1847
871		24.65		103.2
872		-11.5725		109.719
873		-54.9139		95.6463
874		-89.896		55.5786
875		-98.8394		-3.21727
876		-71.795		-61.6779
877		-13.4987		-96.8365
878		56.8955		-92.8118
879		113.645		-49.0252
880		135.948		18.8862
881		117.199		86.0857
