Compute Correlation 
 
0		-16.6274		14.7383
1		-14.2108		2.29898
2		-6.19839		-7.40588
3		5.86537		-12.0119
4		19.3129		-9.78552
5		30.548		-0.34662
6		35.828		14.6917
7		32.5131		31.6572
8		20.2888		45.6284
9		1.72715		51.9899
10		-18.2402		48.1644
11		-33.8805		34.7568
12		-40.6829		15.5365
13		-37.0106		-3.82422
14		-24.6723		-17.7677
15		-8.177		-22.7954
16		6.98565		-18.5539
17		16.293		-7.68572
18		17.5819		5.37902
19		11.423		16.0858
20		0.508396		21.1712
21		-11.5133		19.3599
22		-21.1873		11.2821
23		-25.9905		-1.10238
24		-24.5791		-15.169
25		-16.739		-28.1126
26		-3.30026		-37.2359
27		13.8656		-40.2186
28		31.8711		-35.5413
29		47.0959		-23.0518
30		55.8929		-4.4313
31		55.6336		16.7907
32		45.7352		35.9028
33		28.1908		48.2824
34		7.25638		50.8629
35		-11.7099		43.2198
36		-23.8746		27.8059
37		-26.416		9.20737
38		-19.3156		-7.30005
39		-5.19911		-17.3388
40		11.6326		-18.5915
41		26.5463		-11.2038
42		35.7956		2.56579
43		37.2775		19.1671
44		30.7548		34.6918
45		17.6794		45.6617
46		0.810513		49.6006
47		-16.2666		45.4393
48		-29.7345		33.7943
49		-36.2989		17.0508
50		-34.0534		-0.9188
51		-23.2244		-15.5311
52		-6.45172		-22.7061
53		11.6804		-20.1919
54		25.8803		-8.49502
55		31.8147		9.04285
56		27.6007		27.1844
57		14.506		40.4856
58		-3.47059		45.1121
59		-21.0064		40.0696
60		-33.2896		27.3692
61		-37.5506		11.1064
62		-33.7141		-4.11115
63		-24.0148		-14.7078
64		-11.8677		-19.0613
65		-0.565788		-17.5539
66		7.64781		-11.9221
67		11.8632		-4.34899
68		12.2324		3.24529
69		9.4776		9.48319
70		4.52877		13.4487
71		-1.55668		14.5137
72		-7.49102		12.3292
73		-11.7233		7.05138
74		-12.6841		-0.360619
75		-9.31059		-8.05641
76		-1.62548		-13.6179
77		8.96176		-14.7708
78		19.865		-10.2174
79		28.0341		-0.216668
80		30.9039		13.3673
81		27.1943		27.5808
82		17.2574		39.2364
83		2.89217		45.7573
84		-13.2104		45.7214
85		-28.1147		39.0108
86		-39.1585		26.6764
87		-44.2859		10.7027
88		-42.2937		-6.2092
89		-33.1079		-20.8887
90		-18.0865		-30.1211
91		-0.160601		-31.3573
92		16.4576		-23.6139
93		27.1734		-8.22522
94		28.3938		10.994
95		18.9511		28.4901
96		0.945597		38.5617
97		-20.4992		37.3207
98		-38.6676		24.2663
99		-47.4503		2.76803
100		-43.5052		-20.8498
101		-27.5205		-39.3617
102		-4.0531		-47.0781
103		20.0113		-41.7404
104		37.7799		-25.1729
105		44.5675		-2.50307
106		39.2174		19.6696
107		24.1477		35.415
108		4.26341		41.1548
109		-14.7394		36.4008
110		-28.035		23.4805
111		-32.8053		6.53725
112		-28.6564		-9.75195
113		-17.389		-21.351
114		-2.33418		-25.7044
115		12.5268		-22.1696
116		23.4962		-12.0436
117		28.0166		1.80385
118		25.2965		15.6626
119		16.5245		25.976
120		4.52793		30.363
121		-7.1056		28.3343
122		-15.2048		21.4
123		-18.0639		12.462
124		-15.932		4.68923
125		-10.7161		0.331453
126		-5.02797		-0.00874138
127		-1.02224		2.67155
128		0.413685		6.53963
129		-0.261649		9.98232
130		-1.88494		12.3779
131		-3.54333		14.1732
132		-5.26175		16.2543
133		-7.99361		19.013
134		-12.8959		21.7105
135		-20.3102		22.5879
136		-29.0859		19.7437
137		-36.7341		12.3313
138		-40.4487		1.3835
139		-38.5206		-10.2835
140		-31.3952		-19.1617
141		-21.7422		-22.6626
142		-13.3975		-20.4402
143		-9.62844		-14.7119
144		-11.5614		-9.34227
145		-17.566		-8.08813
146		-23.9323		-12.8364
147		-26.5322		-22.6908
148		-22.6722		-34.3396
149		-12.2622		-43.5048
150		2.21189		-46.7562
151		16.8205		-42.8374
152		27.8161		-32.9521
153		32.9671		-20.0071
154		32.0531		-7.31138
155		26.4652		2.58715
156		18.3044		8.43563
157		9.54773		10.1196
158		1.67122		8.14321
159		-4.25426		3.20398
160		-7.30553		-3.86561
161		-6.66704		-11.8667
162		-1.96536		-19.06
163		6.21668		-23.396
164		16.0731		-23.2154
165		24.9185		-18.1056
166		30.1558		-9.37954
167		30.4507		0.244054
168		26.4636		7.75885
169		20.6347		11.2946
170		16.0007		11.087
171		14.584		9.39055
172		16.2136		9.267
173		18.4839		12.8139
174		17.9866		19.7771
175		12.2483		27.3627
176		1.36066		31.4695
177		-11.6271		28.7957
178		-21.8763		18.7538
179		-24.9955		4.15418
180		-19.2497		-9.7903
181		-6.60745		-17.7288
182		7.95673		-16.6219
183		18.6089		-7.1678
184		21.2193		6.50417
185		15.104		18.7102
186		3.13332		24.7222
187		-9.76854		22.6875
188		-18.9138		14.0877
189		-21.7729		2.64349
190		-18.6438		-7.64117
191		-11.9022		-14.234
192		-4.4108		-16.7804
193		1.95424		-16.5647
194		6.88528		-15.2309
195		11.1545		-13.6199
196		15.525		-11.4171
197		19.8538		-7.734
198		22.9965		-2.1445
199		23.5735		4.58447
200		21.0724		10.6234
201		16.5213		14.0616
202		12.2007		14.1563
203		10.4584		12.0431
204		12.2704		10.3712
205		16.4156		11.95
206		19.8352		18.1047
207		19.0967		27.6724
208		12.2326		37.2699
209		-0.0350323		42.7844
210		-14.3841		41.3572
211		-26.3047		32.8314
212		-32.1316		19.9001
213		-30.658		6.87899
214		-23.5241		-2.24911
215		-14.2372		-5.49856
216		-6.41152		-3.4337
217		-2.19624		1.57387
218		-1.69493		6.85437
219		-3.57025		10.8012
220		-6.33562		13.3254
221		-9.46587		15.2332
222		-13.6155		17.0274
223		-19.821		17.9872
224		-28.2252		16.2023
225		-37.1984		9.64039
226		-43.5363		-2.34637
227		-43.7853		-18.0049
228		-36.0531		-33.3749
229		-21.3035		-43.7574
230		-3.34527		-45.7885
231		12.602		-39.0596
232		22.1111		-26.4092
233		23.4287		-12.6903
234		18.0914		-2.61057
235		9.98862		1.27073
236		3.3914		-0.594356
237		0.983071		-5.38382
238		2.87968		-9.61988
239		7.05232		-10.9892
240		10.796		-9.31281
241		12.3554		-6.23601
242		11.8022		-3.94142
243		10.7492		-3.70452
244		11.1729		-5.13492
245		14.1119		-6.48785
246		19.0215		-5.77599
247		24.1239		-1.95537
248		27.4694		4.54009
249		28.0035		12.1995
250		25.9639		19.4545
251		22.3838		25.612
252		18.0721		31.062
253		12.7999		36.6008
254		5.31668		42.3098
255		-5.69981		46.7776
256		-20.2823		47.3043
257		-36.2735		41.1643
258		-49.5881		27.3272
259		-55.7232		7.66099
260		-51.8682		-13.1843
261		-38.5402		-29.3615
262		-19.8167		-36.2308
263		-1.90715		-32.443
264		9.34934		-20.649
265		10.9026		-6.43757
266		3.68587		4.02537
267		-7.95353		6.54885
268		-18.263		0.48716
269		-22.5357		-11.3211
270		-18.8663		-24.0746
271		-8.5101		-33.1446
272		5.11126		-35.789
273		18.0717		-31.7603
274		27.3849		-22.7829
275		31.6366		-11.4416
276		30.7837		-0.200781
277		25.573		9.00332
278		17.1453		14.6529
279		7.08957		15.467
280		-2.25922		10.6051
281		-7.79593		0.353216
282		-6.32922		-13.1056
283		4.05432		-25.5052
284		22.5298		-31.3983
285		44.8513		-26.0796
286		64.1058		-7.80529
287		72.9008		20.7728
288		66.2068		52.8287
289		43.6194		79.398
290		9.94602		92.5052
291		-26.2559		88.0827
292		-55.6269		67.4235
293		-71.1912		36.5699
294		-70.457		3.98291
295		-55.6686		-22.411
296		-32.3447		-37.5265
297		-6.98832		-39.9589
298		14.9099		-31.3451
299		29.8176		-14.9376
300		36.0075		5.68066
301		32.8821		27.1356
302		20.5342		46.0864
303		-0.0312557		58.9095
304		-26.2069		61.9213
305		-53.3049		52.421
306		-75.0053		30.1886
307		-84.9682		-1.41583
308		-79.1263		-35.6062
309		-57.6286		-63.8847
310		-25.3956		-78.8172
311		9.19076		-76.7398
312		37.0618		-59.1815
313		51.5789		-32.3232
314		50.685		-4.7073
315		37.2386		15.8022
316		17.5299		24.524
317		-1.22007		20.9956
318		-13.2323		8.36887
319		-15.5208		-8.25172
320		-7.98016		-23.5966
321		7.37311		-33.4073
322		27.2986		-34.8203
323		47.8636		-26.3193
324		64.6095		-7.80111
325		72.8001		18.9799
326		68.2539		49.8492
327		48.8574		78.1975
328		16.2303		96.1271
329		-23.4249		96.8247
330		-60.1628		77.439
331		-83.024		41.1865
332		-83.8939		-2.54171
333		-60.9884		-40.5721
334		-20.376		-60.2287
335		25.368		-53.9399
336		61.095		-22.3088
337		74.1902		25.6726
338		58.9014		75.4328
339		18.2504		111.587
340		-37.1017		122.838
341		-92.4385		105.258
342		-133.551		62.9581
343		-150.632		6.25961
344		-140.376		-51.6383
345		-106.005		-98.1922
346		-55.7495		-124.215
347		-0.585611		-125.33
348		48.0364		-102.299
349		80.1798		-60.6082
350		89.1049		-9.52633
351		72.6724		39.3493
352		34.2573		74.1896
353		-17.2826		85.5772
354		-69.0378		69.1899
355		-106.947		27.6419
356		-119.595		-29.415
357		-101.776		-87.3689
358		-56.5015		-130.539
359		5.41648		-146.732
360		68.2733		-130.942
361		115.964		-86.9008
362		136.586		-25.9549
363		125.659		36.2804
364		87.0552		84.3265
365		31.5625		106.897
366		-26.231		99.5101
367		-71.6879		65.186
368		-93.5228		13.3724
369		-86.2184		-42.3893
370		-51.1802		-87.4712
371		3.42338		-109.341
372		64.1263		-100.486
373		114.869		-60.5974
374		140.676		2.57593
375		131.677		74.2526
376		86.4293		135.728
377		13.3847		169.13
378		-70.3873		162.651
379		-143.274		114.621
380		-185.06		34.9077
381		-182.964		-57.1539
382		-135.787		-137.886
383		-54.6961		-185.969
384		39.7133		-188.586
385		123.165		-145.078
386		174.44		-67.0082
387		181.04		25.2193
388		142.203		108.02
389		68.6414		160.797
390		-20.6178		170.944
391		-103.194		136.562
392		-158.768		66.5027
393		-173.734		-22.0012
394		-144.201		-107.434
395		-76.8504		-168.949
396		12.5001		-191.221
397		102.439		-168.201
398		170.992		-104.889
399		201.113		-16.4979
400		185.258		75.0843
401		127.72		146.835
402		43.8136		180.77
403		-44.0755		168.973
404		-112.597		115.908
405		-143.919		37.2019
406		-130.644		-44.7808
407		-77.6712		-107.231
408		-0.549489		-133.148
409		79.0474		-115.731
410		139.268		-59.808
411		163.728		19.8489
412		145.427		102.601
413		88.1785		167.175
414		5.47183		196.769
415		-82.7683		182.981
416		-154.776		127.866
417		-192.011		43.7624
418		-183.761		-49.1555
419		-130.274		-127.33
420		-43.5524		-169.517
421		54.7889		-162.525
422		138.466		-105.451
423		183.32		-10.9765
424		174.198		97.0555
425		109.862		189.521
426		4.20313		239.876
427		-116.867		231.738
428		-222.162		163.857
429		-283.658		50.8877
430		-284.143		-80.3291
431		-221.858		-197.829
432		-110.903		-272.861
433		22.5091		-287.167
434		146.743		-237.353
435		232.491		-135.477
436		259.706		-5.97289
437		222.219		120.164
438		129.188		212.567
439		3.15432		248.563
440		-124.931		218.693
441		-222.823		129.441
442		-264.844		2.35765
443		-238.695		-130.614
444		-149.368		-234.872
445		-18.7238		-282.216
446		119.624		-258.833
447		229.109		-169.731
448		280.376		-37.9838
449		259.768		101.358
450		173.452		211.08
451		45.7288		262.424
452		-88.0273		243.242
453		-191.611		161.164
454		-238.24		40.9354
455		-217.733		-83.0971
456		-138.67		-176.874
457		-25.221		-215.913
458		90.0622		-191.464
459		175.231		-112.129
460		207.248		-0.944553
461		177.628		111.001
462		94.3098		192.653
463		-20.4862		220.875
464		-135.801		186.398
465		-219.705		96.5138
466		-247.597		-26.2251
467		-209.106		-149.288
468		-111.701		-238.446
469		20.3009		-267.159
470		151.545		-224.532
471		245.089		-119.38
472		272.987		21.2154
473		224.858		158.872
474		111.648		254.602
475		-36.8442		280.126
476		-180.133		226.289
477		-278.48		105.937
478		-304.123		-49.6246
479		-248.918		-199.449
480		-126.275		-304.263
481		32.926		-336.924
482		188.908		-289.16
483		303.46		-173.043
484		349.418		-17.2415
485		316.909		140.582
486		215.159		263.123
487		69.772		322.286
488		-83.6592		305.648
489		-208.122		219.212
490		-274.071		85.9009
491		-266.655		-59.99
492		-189.541		-181.242
493		-64.1728		-247.169
494		75.6372		-241.685
495		192.615		-167.694
496		256.119		-46.3433
497		250.534		88.8814
498		179.413		201.634
499		64.032		262.961
500		-63.1809		259.197
501		-168.271		195.148
502		-225.379		91.7368
503		-223.453		-20.8675
504		-168.238		-112.286
505		-79.3719		-160.27
506		16.1047		-156.032
507		91.5759		-105.407
508		127.764		-26.0697
509		117.066		57.9615
510		64.6079		122.838
511		-13.8093		150.788
512		-96.0926		134.216
513		-159.483		77.2899
514		-186.235		-5.22332
515		-168.145		-91.6332
516		-108.875		-158.826
517		-23.312		-188.383
518		66.1231		-171.761
519		135.487		-113.005
520		166.067		-27.9547
521		149.872		60.0589
522		92.0621		126.887
523		9.45075		154.575
524		-74.5288		136.485
525		-136.739		78.8915
526		-160.894		-1.32472
527		-141.727		-81.9702
528		-85.6659		-141.941
529		-8.19401		-166.706
530		70.9125		-151.402
531		132.818		-101.062
532		163.891		-28.4515
533		158.178		49.49
534		117.989		115.536
535		52.8843		155.643
536		-22.4846		161.599
537		-91.3377		132.625
538		-138.218		75.7145
539		-152.478		4.44127
540		-131.088		-63.8517
541		-79.8804		-112.165
542		-12.5466		-128.349
543		52.7311		-108.673
544		98.2438		-59.1858
545		111.854		5.84211
546		90.5273		68.0439
547		41.0528		110.376
548		-22.2819		122.007
549		-82.2104		101.077
550		-123.574		54.5373
551		-137.285		-4.58857
552		-122.06		-61.3453
553		-83.7475		-102.9
554		-32.9279		-121.34
555		18.1611		-114.759
556		58.4239		-86.8209
557		79.9355		-45.3877
558		79.1432		-0.715206
559		57.3726		36.5045
560		20.6803		57.1987
561		-21.1013		55.9585
562		-56.3071		32.7036
563		-74.277		-6.65989
564		-68.4939		-51.1868
565		-39.0014		-87.6009
566		6.96911		-104.193
567		56.7285		-94.6715
568		95.8992		-60.5031
569		113.005		-10.7227
570		103.212		40.8858
571		69.8074		80.2559
572		22.8679		97.4986
573		-24.2797		89.7291
574		-59.3975		61.3481
575		-74.8423		21.9314
576		-69.1274		-17.2149
577		-46.3357		-46.4205
578		-14.0436		-59.8302
579		19.1779		-56.0008
580		45.7668		-37.2499
581		60.2986		-8.45698
582		59.9051		24.0829
583		44.3959		53.5597
584		16.3509		73.495
585		-18.9179		78.8133
586		-53.9183		67.1567
587		-80.3692		40.037
588		-91.3509		3.16174
589		-83.5925		-34.5931
590		-58.9519		-63.5535
591		-24.2831		-76.2723
592		10.5106		-70.0738
593		35.6434		-48.0442
594		44.6541		-17.9896
595		36.4056		10.2699
596		15.1388		28.1969
597		-11.3315		31.1493
598		-34.4365		19.4034
599		-47.5312		-2.58109
600		-47.5009		-28.0919
601		-34.9683		-50.3676
602		-13.4069		-64.2616
603		12.1928		-67.0179
604		36.5227		-58.3053
605		54.7919		-39.9062
606		63.3208		-15.3657
607		60.1333		10.3921
608		45.6068		31.7205
609		22.9178		43.396
610		-2.1788		42.1566
611		-22.5628		28.1276
612		-31.8362		5.41065
613		-26.6235		-18.7091
614		-8.12349		-35.9258
615		17.8952		-39.7596
616		42.8517		-27.971
617		58.2837		-3.50049
618		58.8035		26.5216
619		43.8854		53.316
620		17.7954		69.4986
621		-12.2059		71.3977
622		-38.5323		59.8044
623		-55.6734		39.0603
624		-61.4504		15.1004
625		-56.8795		-6.58966
626		-45.0483		-22.303
627		-29.7404		-30.4415
628		-14.4438		-31.1076
629		-1.95949		-25.4939
630		5.61036		-15.5027
631		6.89709		-3.66399
632		1.57217		6.92829
633		-9.18825		13.0242
634		-22.4912		12.0979
635		-34.1824		3.41975
636		-40.0567		-11.2501
637		-37.4362		-27.8772
638		-26.3965		-41.4081
639		-9.97151		-47.6403
640		6.89572		-44.8915
641		19.2628		-34.6676
642		24.1108		-20.9782
643		21.3944		-8.60678
644		13.7565		-1.15685
645		5.11423		0.20911
646		-1.13148		-3.1933
647		-3.37017		-8.64372
648		-1.98367		-13.5296
649		1.46424		-16.4614
650		5.44844		-17.4582
651		9.34204		-17.2503
652		13.4306		-16.2679
653		18.1561		-14.0376
654		23.1635		-9.42128
655		26.86		-1.57401
656		26.8906		8.98971
657		21.365		19.9574
658		10.1732		27.8202
659		-4.40438		29.3331
660		-18.2483		23.1307
661		-26.9621		10.6411
662		-27.7304		-4.23521
663		-20.5739		-16.5957
664		-8.38565		-22.4832
665		4.25818		-20.404
666		12.926		-11.7471
667		14.9377		-0.00157928
668		10.0732		10.7513
669		0.214272		17.3085
670		-11.7163		18.1515
671		-22.8771		13.4046
672		-31.1705		4.23412
673		-35.3091		-7.79509
674		-34.5563		-21.0154
675		-28.5688		-33.5764
676		-17.6005		-43.3047
677		-2.9568		-47.9035
678		12.7202		-45.6574
679		25.781		-36.3919
680		32.6383		-22.1294
681		31.229		-6.89304
682		22.1646		4.50257
683		8.88624		8.28103
684		-3.43289		3.34356
685		-9.86988		-8.10662
686		-7.7566		-21.3456
687		2.23096		-31.0301
688		16.4257		-33.3694
689		29.7993		-27.5684
690		38.0875		-15.9045
691		39.4108		-2.47445
692		34.6839		8.71071
693		26.7437		15.3313
694		18.7624		17.3451
695		12.8108		16.4144
696		9.26298		14.6418
697		7.20568		13.3881
698		5.44847		12.8009
699		3.44555		12.2002
700		1.57218		10.947
701		0.651745		9.16075
702		1.11395		7.79358
703		2.3924		8.00969
704		3.00939		10.2791
705		1.35338		13.7957
706		-3.29701		16.6492
707		-10.1333		16.7262
708		-16.995		12.8627
709		-21.3326		5.59029
710		-21.4586		-2.97741
711		-17.4098		-10.0932
712		-10.9433		-13.6679
713		-4.66789		-13.2162
714		-0.787357		-9.96792
715		-0.131432		-6.11863
716		-1.96766		-3.67241
717		-4.63071		-3.52534
718		-6.54577		-5.26669
719		-7.02789		-7.73165
720		-6.41288		-9.8971
721		-5.50704		-11.5308
722		-4.76977		-13.1875
723		-3.80289		-15.5769
724		-1.52154		-18.7413
725		3.06036		-21.6262
726		9.91066		-22.4013
727		17.5371		-19.4312
728		23.3916		-12.3678
729		25.0027		-2.7058
730		21.2721		6.60094
731		13.2227		12.3584
732		3.74313		12.603
733		-3.60574		7.5717
734		-6.15361		-0.343658
735		-3.28033		-7.65193
736		3.39084		-11.3017
737		10.826		-9.94466
738		15.979		-4.33694
739		17.0411		3.23888
740		13.9636		10.1419
741		8.10808		14.4871
742		1.34564		15.6699
743		-4.82586		14.1597
744		-9.68374		10.8437
745		-13.0956		6.41761
746		-15.0262		1.20668
747		-15.1815		-4.54601
748		-13.0976		-10.2298
749		-8.63175		-14.6868
750		-2.48959		-16.5515
751		3.66038		-14.9901
752		7.70781		-10.3976
753		8.07542		-4.55896
754		4.63149		-0.0426674
755		-1.0202		0.952114
756		-6.1342		-2.28183
757		-8.07576		-8.49682
758		-5.61105		-14.9981
759		0.453385		-18.9152
760		7.64971		-18.5982
761		13.0744		-14.4062
762		14.8252		-8.46835
763		12.8938		-3.54509
764		9.05045		-1.60638
765		5.81008		-2.88732
766		5.06337		-5.911
767		7.12832		-8.42554
768		10.7217		-8.7002
769		13.8222		-6.44292
770		14.8947		-2.84003
771		13.7584		0.265488
772		11.6058		1.54509
773		10.1884		1.00254
774		10.6693		-0.0430241
775		12.8385		0.207466
776		15.1628		2.88013
777		15.6526		7.64713
778		13.0417		12.7897
779		7.59166		16.0853
780		1.04532		16.0166
781		-4.25483		12.6126
782		-6.58607		7.44151
783		-5.7142		2.76398
784		-2.93067		0.334808
785		-0.258484		0.532955
786		0.697273		2.29762
787		-0.412964		3.87327
788		-2.62459		3.89751
789		-4.37715		2.18048
790		-4.54871		-0.274979
791		-3.16791		-1.99834
792		-1.37135		-2.05606
793		-0.640106		-0.704718
794		-1.7934		0.722919
795		-4.3728		0.643036
796		-6.82182		-1.74127
797		-7.38335		-5.83465
798		-5.19203		-9.87833
799		-0.895859		-11.9197
800		3.60111		-10.973
801		6.17219		-7.68059
802		5.7046		-4.04864
803		2.81872		-2.3632
804		-0.378677		-3.87556
805		-1.41257		-8.00793
806		1.17183		-12.5577
807		6.92641		-14.8245
808		13.6348		-13.0594
809		18.416		-7.43951
810		19.2065		-0.0257759
811		15.8158		6.2817
812		9.98428		9.22051
813		4.42652		8.27245
814		1.39853		4.81097
815		1.58075		1.24141
816		3.87011		-0.357978
817		6.15301		0.673889
818		6.58082		3.34935
819		4.60686		5.74244
820		1.20967		6.18769
821		-1.78312		4.25371
822		-2.83308		0.935653
823		-1.60093		-2.01101
824		0.904194		-3.1661
825		3.00095		-2.29696
826		3.40625		-0.456867
827		2.03858		0.717453
828		0.0621452		0.069643
829		-0.855873		-2.30917
830		0.378323		-5.08823
831		3.53659		-6.48943
832		7.11938		-5.39364
833		9.1988		-2.09029
834		8.56669		1.8001
835		5.50253		4.21337
836		1.68608		3.83471
837		-0.722448		0.896156
838		-0.316986		-2.906
839		2.72249		-5.35122
840		6.69827		-4.96429
841		9.34481		-1.88224
842		9.12679		2.19346
843		6.1406		4.94839
844		2.09242		4.77593
845		-0.646492		1.71243
846		-0.375343		-2.55312
847		2.97039		-5.60664
848		7.77407		-5.64733
849		11.6373		-2.47504
850		12.706		2.43237
851		10.6625		6.78469
852		6.82295		8.77863
853		3.30022		8.07557
854		1.73599		5.89748
855		2.35194		4.20063
856		3.87713		4.42891
857		4.3885		6.59475
858		2.55935		9.24159
859		-1.43536		10.3199
860		-5.91146		8.4642
861		-8.59418		3.91085
862		-7.94145		-1.50303
863		-4.10043		-5.28983
864		1.07522		-5.68274
865		4.98323		-2.64399
866		5.67664		2.07694
867		2.92021		5.88277
868		-1.70186		6.7405
869		-5.68897		4.26885
870		-7.0212		-0.111965
871		-5.25444		-4.04216
872		-1.69476		-5.59071
873		1.43145		-4.33834
874		2.3155		-1.55577
875		0.626677		0.610977
876		-2.32235		0.457306
